x-axis,1,2
second,Volt,Volt
-220.0000E-03,+1.9606941E+00,+1.9752277E+00
-219.5000E-03,+1.9578198E+00,+1.9757302E+00
-219.0000E-03,+1.9547645E+00,+1.9756297E+00
-218.5000E-03,+1.9664429E+00,+1.9757302E+00
-218.0000E-03,+1.9707042E+00,+1.9757302E+00
-217.5000E-03,+1.9773775E+00,+1.9757302E+00
-217.0000E-03,+1.9783022E+00,+1.9757302E+00
-216.5000E-03,+1.9790057E+00,+1.9757302E+00
-216.0000E-03,+1.9749454E+00,+1.9757302E+00
-215.5000E-03,+1.9723122E+00,+1.9757804E+00
-215.0000E-03,+1.9700409E+00,+1.9757302E+00
-214.5000E-03,+1.9758499E+00,+1.9752779E+00
-214.0000E-03,+1.9804529E+00,+1.9757804E+00
-213.5000E-03,+1.9829454E+00,+1.9748759E+00
-213.0000E-03,+1.9829655E+00,+1.9757302E+00
-212.5000E-03,+1.9785836E+00,+1.9757302E+00
-212.0000E-03,+1.9815584E+00,+1.9757302E+00
-211.5000E-03,+1.9787846E+00,+1.9757302E+00
-211.0000E-03,+1.9846137E+00,+1.9757302E+00
-210.5000E-03,+1.9879102E+00,+1.9757302E+00
-210.0000E-03,+1.9884328E+00,+1.9757302E+00
-209.5000E-03,+1.9944429E+00,+1.9757302E+00
-209.0000E-03,+1.9910258E+00,+1.9769865E+00
-208.5000E-03,+1.9981012E+00,+1.9766347E+00
-208.0000E-03,+1.9865635E+00,+1.9757302E+00
-207.5000E-03,+1.9831062E+00,+1.9749764E+00
-207.0000E-03,+1.9738801E+00,+1.9747754E+00
-206.5000E-03,+1.9733172E+00,+1.9744739E+00
-206.0000E-03,+1.9715685E+00,+1.9745744E+00
-205.5000E-03,+1.9734981E+00,+1.9757302E+00
-205.0000E-03,+1.9711464E+00,+1.9757302E+00
-204.5000E-03,+1.9636690E+00,+1.9757302E+00
-204.0000E-03,+1.9616590E+00,+1.9757302E+00
-203.5000E-03,+1.9697796E+00,+1.9757302E+00
-203.0000E-03,+1.9594680E+00,+1.9745241E+00
-202.5000E-03,+1.9570760E+00,+1.9759814E+00
-202.0000E-03,+1.9639303E+00,+1.9757302E+00
-201.5000E-03,+1.9698801E+00,+1.9757302E+00
-201.0000E-03,+1.9694579E+00,+1.9753282E+00
-200.5000E-03,+1.9742419E+00,+1.9746749E+00
-200.0000E-03,+1.9735585E+00,+1.9757302E+00
-199.5000E-03,+1.9783826E+00,+1.9757302E+00
-199.0000E-03,+1.9874077E+00,+1.9765845E+00
-198.5000E-03,+1.9863826E+00,+1.9757302E+00
-198.0000E-03,+1.9804529E+00,+1.9757302E+00
-197.5000E-03,+1.9753675E+00,+1.9744739E+00
-197.0000E-03,+1.9756690E+00,+1.9744739E+00
-196.5000E-03,+1.9755283E+00,+1.9757302E+00
-196.0000E-03,+1.9767745E+00,+1.9757302E+00
-195.5000E-03,+1.9709253E+00,+1.9769865E+00
-195.0000E-03,+1.9707444E+00,+1.9757302E+00
-194.5000E-03,+1.9792268E+00,+1.9757302E+00
-194.0000E-03,+1.9732569E+00,+1.9757302E+00
-193.5000E-03,+1.9777997E+00,+1.9757302E+00
-193.0000E-03,+1.9761715E+00,+1.9747754E+00
-192.5000E-03,+1.9715484E+00,+1.9757302E+00
-192.0000E-03,+1.9751665E+00,+1.9757302E+00
-191.5000E-03,+1.9703424E+00,+1.9757302E+00
-191.0000E-03,+1.9805735E+00,+1.9757302E+00
-190.5000E-03,+1.9780007E+00,+1.9756799E+00
-190.0000E-03,+1.9745635E+00,+1.9757302E+00
-189.5000E-03,+1.9841112E+00,+1.9757302E+00
-189.0000E-03,+1.9798298E+00,+1.9757302E+00
-188.5000E-03,+1.9775383E+00,+1.9757302E+00
-188.0000E-03,+1.9760107E+00,+1.9759312E+00
-187.5000E-03,+1.9795886E+00,+1.9769865E+00
-187.0000E-03,+1.9776590E+00,+1.9757302E+00
-186.5000E-03,+1.9764529E+00,+1.9757302E+00
-186.0000E-03,+1.9576992E+00,+1.9769865E+00
-185.5000E-03,+1.9715685E+00,+1.9761824E+00
-185.0000E-03,+1.9715484E+00,+1.9757302E+00
-184.5000E-03,+1.9740007E+00,+1.9757302E+00
-184.0000E-03,+1.9758097E+00,+1.9757302E+00
-183.5000E-03,+1.9650760E+00,+1.9757302E+00
-183.0000E-03,+1.9734378E+00,+1.9757302E+00
-182.5000E-03,+1.9732569E+00,+1.9757302E+00
-182.0000E-03,+1.9810961E+00,+1.9766850E+00
-181.5000E-03,+1.9746841E+00,+1.9757302E+00
-181.0000E-03,+1.9737394E+00,+1.9757302E+00
-180.5000E-03,+1.9728549E+00,+1.9757302E+00
-180.0000E-03,+1.9697394E+00,+1.9749764E+00
-179.5000E-03,+1.9691363E+00,+1.9751774E+00
-179.0000E-03,+1.9762921E+00,+1.9757302E+00
-178.5000E-03,+1.9858198E+00,+1.9757302E+00
-178.0000E-03,+1.9901213E+00,+1.9769362E+00
-177.5000E-03,+1.9893373E+00,+1.9759814E+00
-177.0000E-03,+1.9901012E+00,+1.9769865E+00
-176.5000E-03,+1.9900409E+00,+1.9757302E+00
-176.0000E-03,+1.9864630E+00,+1.9757302E+00
-175.5000E-03,+1.9794077E+00,+1.9757302E+00
-175.0000E-03,+1.9795886E+00,+1.9757302E+00
-174.5000E-03,+1.9889152E+00,+1.9757302E+00
-174.0000E-03,+1.9836288E+00,+1.9757302E+00
-173.5000E-03,+1.9820208E+00,+1.9757302E+00
-173.0000E-03,+1.9775585E+00,+1.9757302E+00
-172.5000E-03,+1.9726539E+00,+1.9757302E+00
-172.0000E-03,+1.9785233E+00,+1.9769362E+00
-171.5000E-03,+1.9730559E+00,+1.9758809E+00
-171.0000E-03,+1.9804730E+00,+1.9757302E+00
-170.5000E-03,+1.9643524E+00,+1.9757302E+00
-170.0000E-03,+1.9599906E+00,+1.9769865E+00
-169.5000E-03,+1.9633474E+00,+1.9760317E+00
-169.0000E-03,+1.9656187E+00,+1.9757302E+00
-168.5000E-03,+1.9655987E+00,+1.9744739E+00
-168.0000E-03,+1.9633675E+00,+1.9757302E+00
-167.5000E-03,+1.9672268E+00,+1.9757302E+00
-167.0000E-03,+1.9716087E+00,+1.9757302E+00
-166.5000E-03,+1.9620007E+00,+1.9757302E+00
-166.0000E-03,+1.9633474E+00,+1.9757302E+00
-165.5000E-03,+1.9723926E+00,+1.9757302E+00
-165.0000E-03,+1.9909454E+00,+1.9757302E+00
-164.5000E-03,+2.0013373E+00,+1.9757302E+00
-164.0000E-03,+2.0035082E+00,+1.9757302E+00
-163.5000E-03,+1.9915685E+00,+1.9757302E+00
-163.0000E-03,+1.9727544E+00,+1.9757302E+00
-162.5000E-03,+1.9755685E+00,+1.9757302E+00
-162.0000E-03,+1.9772971E+00,+1.9755292E+00
-161.5000E-03,+1.9881916E+00,+1.9757302E+00
-161.0000E-03,+1.9982821E+00,+1.9757302E+00
-160.5000E-03,+1.9927745E+00,+1.9757302E+00
-160.0000E-03,+1.9869253E+00,+1.9757302E+00
-159.5000E-03,+1.9763524E+00,+1.9757302E+00
-159.0000E-03,+1.9822218E+00,+1.9757302E+00
-158.5000E-03,+1.9766338E+00,+1.9769865E+00
-158.0000E-03,+1.9757695E+00,+1.9757302E+00
-157.5000E-03,+1.9797896E+00,+1.9757302E+00
-157.0000E-03,+1.9805936E+00,+1.9757302E+00
-156.5000E-03,+1.9723122E+00,+1.9769865E+00
-156.0000E-03,+1.9834278E+00,+1.9768860E+00
-155.5000E-03,+1.9806137E+00,+1.9757302E+00
-155.0000E-03,+1.9748650E+00,+1.9757302E+00
-154.5000E-03,+1.9659203E+00,+1.9762829E+00
-154.0000E-03,+1.9705836E+00,+1.9757302E+00
-153.5000E-03,+1.9718700E+00,+1.9768357E+00
-153.0000E-03,+1.9649353E+00,+1.9757302E+00
-152.5000E-03,+1.9767745E+00,+1.9757302E+00
-152.0000E-03,+1.9766941E+00,+1.9757302E+00
-151.5000E-03,+1.9784630E+00,+1.9757302E+00
-151.0000E-03,+1.9755082E+00,+1.9757302E+00
-150.5000E-03,+1.9758499E+00,+1.9757302E+00
-150.0000E-03,+1.9640107E+00,+1.9757302E+00
-149.5000E-03,+1.9610760E+00,+1.9757302E+00
-149.0000E-03,+1.9735987E+00,+1.9757302E+00
-148.5000E-03,+1.9729956E+00,+1.9757302E+00
-148.0000E-03,+1.9691162E+00,+1.9761824E+00
-147.5000E-03,+1.9741615E+00,+1.9757302E+00
-147.0000E-03,+1.9770157E+00,+1.9757302E+00
-146.5000E-03,+1.9846338E+00,+1.9757302E+00
-146.0000E-03,+1.9877092E+00,+1.9757302E+00
-145.5000E-03,+1.9870861E+00,+1.9764337E+00
-145.0000E-03,+1.9839102E+00,+1.9757302E+00
-144.5000E-03,+1.9802921E+00,+1.9757302E+00
-144.0000E-03,+1.9872268E+00,+1.9769865E+00
-143.5000E-03,+1.9859203E+00,+1.9769865E+00
-143.0000E-03,+1.9915082E+00,+1.9769865E+00
-142.5000E-03,+1.9883323E+00,+1.9764840E+00
-142.0000E-03,+1.9877092E+00,+1.9769865E+00
-141.5000E-03,+1.9825635E+00,+1.9757302E+00
-141.0000E-03,+1.9773775E+00,+1.9758809E+00
-140.5000E-03,+1.9850157E+00,+1.9769865E+00
-140.0000E-03,+1.9821012E+00,+1.9769865E+00
-139.5000E-03,+1.9710459E+00,+1.9765342E+00
-139.0000E-03,+1.9737796E+00,+1.9769865E+00
-138.5000E-03,+1.9684127E+00,+1.9769865E+00
-138.0000E-03,+1.9761514E+00,+1.9769865E+00
-137.5000E-03,+1.9730559E+00,+1.9769865E+00
-137.0000E-03,+1.9806740E+00,+1.9757302E+00
-136.5000E-03,+1.9685534E+00,+1.9761322E+00
-136.0000E-03,+1.9615384E+00,+1.9763332E+00
-135.5000E-03,+1.9525132E+00,+1.9757302E+00
-135.0000E-03,+1.9586841E+00,+1.9759814E+00
-134.5000E-03,+1.9739806E+00,+1.9769865E+00
-134.0000E-03,+1.9645735E+00,+1.9757302E+00
-133.5000E-03,+1.9521313E+00,+1.9769865E+00
-133.0000E-03,+1.9508047E+00,+1.9769865E+00
-132.5000E-03,+1.9668248E+00,+1.9762327E+00
-132.0000E-03,+1.9695183E+00,+1.9769865E+00
-131.5000E-03,+1.9705635E+00,+1.9758307E+00
-131.0000E-03,+1.9699002E+00,+1.9768860E+00
-130.5000E-03,+1.9849152E+00,+1.9769865E+00
-130.0000E-03,+1.9684328E+00,+1.9762327E+00
-129.5000E-03,+1.9788047E+00,+1.9769865E+00
-129.0000E-03,+1.9824630E+00,+1.9760819E+00
-128.5000E-03,+1.9853775E+00,+1.9757302E+00
-128.0000E-03,+1.9924529E+00,+1.9757804E+00
-127.5000E-03,+1.9875283E+00,+1.9769865E+00
-127.0000E-03,+1.9883122E+00,+1.9765342E+00
-126.5000E-03,+1.9889755E+00,+1.9769865E+00
-126.0000E-03,+1.9853373E+00,+1.9765845E+00
-125.5000E-03,+1.9842117E+00,+1.9759312E+00
-125.0000E-03,+1.9750660E+00,+1.9769865E+00
-124.5000E-03,+1.9811966E+00,+1.9769865E+00
-124.0000E-03,+1.9792268E+00,+1.9769865E+00
-123.5000E-03,+1.9738600E+00,+1.9757302E+00
-123.0000E-03,+1.9716489E+00,+1.9757302E+00
-122.5000E-03,+1.9735584E+00,+1.9757302E+00
-122.0000E-03,+1.9743826E+00,+1.9757302E+00
-121.5000E-03,+1.9734981E+00,+1.9757302E+00
-121.0000E-03,+1.9659404E+00,+1.9769865E+00
-120.5000E-03,+1.9643323E+00,+1.9750267E+00
-120.0000E-03,+1.9589856E+00,+1.9762327E+00
-119.5000E-03,+1.9635685E+00,+1.9757302E+00
-119.0000E-03,+1.9572770E+00,+1.9757302E+00
-118.5000E-03,+1.9610358E+00,+1.9769865E+00
-118.0000E-03,+1.9659605E+00,+1.9760317E+00
-117.5000E-03,+1.9641112E+00,+1.9764840E+00
-117.0000E-03,+1.9587846E+00,+1.9769865E+00
-116.5000E-03,+1.9615384E+00,+1.9757302E+00
-116.0000E-03,+1.9703826E+00,+1.9768357E+00
-115.5000E-03,+1.9701012E+00,+1.9757804E+00
-115.0000E-03,+1.9797896E+00,+1.9757302E+00
-114.5000E-03,+1.9754278E+00,+1.9769865E+00
-114.0000E-03,+1.9778399E+00,+1.9769865E+00
-113.5000E-03,+1.9791263E+00,+1.9761322E+00
-113.0000E-03,+1.9777795E+00,+1.9759312E+00
-112.5000E-03,+1.9831062E+00,+1.9769865E+00
-112.0000E-03,+1.9828851E+00,+1.9769865E+00
-111.5000E-03,+1.9844931E+00,+1.9769865E+00
-111.0000E-03,+1.9725936E+00,+1.9769865E+00
-110.5000E-03,+1.9810559E+00,+1.9761824E+00
-110.0000E-03,+1.9849152E+00,+1.9757302E+00
-109.5000E-03,+2.0085534E+00,+1.9769865E+00
-109.0000E-03,+2.0095786E+00,+1.9769865E+00
-108.5000E-03,+2.0062017E+00,+1.9766347E+00
-108.0000E-03,+2.0100208E+00,+1.9762829E+00
-107.5000E-03,+1.9960710E+00,+1.9757302E+00
-107.0000E-03,+1.9980811E+00,+1.9766850E+00
-106.5000E-03,+1.9878901E+00,+1.9758307E+00
-106.0000E-03,+1.9800107E+00,+1.9769865E+00
-105.5000E-03,+1.9807745E+00,+1.9760317E+00
-105.0000E-03,+1.9788851E+00,+1.9769865E+00
-104.5000E-03,+1.9659806E+00,+1.9757302E+00
-104.0000E-03,+1.9451162E+00,+1.9757302E+00
-103.5000E-03,+1.9275685E+00,+1.9769865E+00
-103.0000E-03,+1.9214780E+00,+1.9757302E+00
-102.5000E-03,+1.9402921E+00,+1.9767352E+00
-102.0000E-03,+1.9408951E+00,+1.9761824E+00
-101.5000E-03,+1.9483926E+00,+1.9757302E+00
-101.0000E-03,+1.9479102E+00,+1.9757302E+00
-100.5000E-03,+1.9562318E+00,+1.9767855E+00
-100.0000E-03,+1.9635082E+00,+1.9769865E+00
-99.5000E-03,+1.9731967E+00,+1.9757302E+00
-99.0000E-03,+1.9767946E+00,+1.9761322E+00
-98.5000E-03,+1.9786037E+00,+1.9751272E+00
-98.0000E-03,+1.9849152E+00,+1.9757302E+00
-97.5000E-03,+1.9904429E+00,+1.9757302E+00
-97.0000E-03,+1.9826841E+00,+1.9757302E+00
-96.5000E-03,+1.9777996E+00,+1.9757302E+00
-96.0000E-03,+1.9819605E+00,+1.9757302E+00
-95.5000E-03,+1.9757896E+00,+1.9757302E+00
-95.0000E-03,+1.9767745E+00,+1.9757302E+00
-94.5000E-03,+1.9799504E+00,+1.9757302E+00
-94.0000E-03,+1.9758700E+00,+1.9757302E+00
-93.5000E-03,+1.9784228E+00,+1.9757302E+00
-93.0000E-03,+1.9854178E+00,+1.9769865E+00
-92.5000E-03,+1.9797896E+00,+1.9757302E+00
-92.0000E-03,+1.9712268E+00,+1.9757302E+00
-91.5000E-03,+1.9745635E+00,+1.9766347E+00
-91.0000E-03,+1.9757695E+00,+1.9768357E+00
-90.5000E-03,+1.9715685E+00,+1.9769362E+00
-90.0000E-03,+1.9722519E+00,+1.9757302E+00
-89.5000E-03,+1.9738198E+00,+1.9757302E+00
-89.0000E-03,+1.9651765E+00,+1.9757302E+00
-88.5000E-03,+1.9591062E+00,+1.9761322E+00
-88.0000E-03,+1.9565735E+00,+1.9757302E+00
-87.5000E-03,+1.9579806E+00,+1.9757302E+00
-87.0000E-03,+1.9560308E+00,+1.9757302E+00
-86.5000E-03,+1.9532971E+00,+1.9765845E+00
-86.0000E-03,+1.9596690E+00,+1.9757302E+00
-85.5000E-03,+1.9657997E+00,+1.9769865E+00
-85.0000E-03,+1.9794881E+00,+1.9769865E+00
-84.5000E-03,+1.9735182E+00,+1.9769362E+00
-84.0000E-03,+1.9735183E+00,+1.9758809E+00
-83.5000E-03,+1.9728750E+00,+1.9769865E+00
-83.0000E-03,+1.9821615E+00,+1.9757302E+00
-82.5000E-03,+1.9866238E+00,+1.9749764E+00
-82.0000E-03,+1.9793876E+00,+1.9757302E+00
-81.5000E-03,+1.9654378E+00,+1.9758307E+00
-81.0000E-03,+1.9684931E+00,+1.9769865E+00
-80.5000E-03,+1.9675886E+00,+1.9757302E+00
-80.0000E-03,+1.9741615E+00,+1.9769865E+00
-79.5000E-03,+1.9783625E+00,+1.9764337E+00
-79.0000E-03,+1.9884328E+00,+1.9757302E+00
-78.5000E-03,+1.9942017E+00,+1.9769865E+00
-78.0000E-03,+1.9972569E+00,+1.9757302E+00
-77.5000E-03,+1.9962720E+00,+1.9759814E+00
-77.0000E-03,+1.9870459E+00,+1.9761824E+00
-76.5000E-03,+1.9866238E+00,+1.9757302E+00
-76.0000E-03,+1.9888147E+00,+1.9761322E+00
-75.5000E-03,+1.9914479E+00,+1.9769865E+00
-75.0000E-03,+1.9851162E+00,+1.9757302E+00
-74.5000E-03,+1.9712067E+00,+1.9757302E+00
-74.0000E-03,+1.9534378E+00,+1.9757302E+00
-73.5000E-03,+1.9588650E+00,+1.9757302E+00
-73.0000E-03,+1.9598298E+00,+1.9769865E+00
-72.5000E-03,+1.9637092E+00,+1.9769865E+00
-72.0000E-03,+1.9801916E+00,+1.9757804E+00
-71.5000E-03,+1.9796087E+00,+1.9769865E+00
-71.0000E-03,+1.9782821E+00,+1.9766347E+00
-70.5000E-03,+1.9766740E+00,+1.9762829E+00
-70.0000E-03,+1.9701414E+00,+1.9757302E+00
-69.5000E-03,+1.9656590E+00,+1.9760317E+00
-69.0000E-03,+1.9717896E+00,+1.9768860E+00
-68.5000E-03,+1.9765735E+00,+1.9757302E+00
-68.0000E-03,+1.9784228E+00,+1.9760317E+00
-67.5000E-03,+1.9677293E+00,+1.9764840E+00
-67.0000E-03,+1.9659002E+00,+1.9769865E+00
-66.5000E-03,+1.9657595E+00,+1.9757302E+00
-66.0000E-03,+1.9688348E+00,+1.9757302E+00
-65.5000E-03,+1.9720107E+00,+1.9757302E+00
-65.0000E-03,+1.9672268E+00,+1.9759814E+00
-64.5000E-03,+1.9806137E+00,+1.9757302E+00
-64.0000E-03,+1.9772770E+00,+1.9757302E+00
-63.5000E-03,+1.9764328E+00,+1.9757302E+00
-63.0000E-03,+1.9802720E+00,+1.9757302E+00
-62.5000E-03,+1.9846137E+00,+1.9757302E+00
-62.0000E-03,+1.9883926E+00,+1.9759312E+00
-61.5000E-03,+1.9860409E+00,+1.9757302E+00
-61.0000E-03,+1.9735987E+00,+1.9757302E+00
-60.5000E-03,+1.9822218E+00,+1.9757302E+00
-60.0000E-03,+1.9804931E+00,+1.9767352E+00
-59.5000E-03,+1.9854379E+00,+1.9757804E+00
-59.0000E-03,+1.9999504E+00,+1.9768357E+00
-58.5000E-03,+1.9894379E+00,+1.9766347E+00
-58.0000E-03,+1.9939404E+00,+1.9762829E+00
-57.5000E-03,+1.9844127E+00,+1.9757302E+00
-57.0000E-03,+1.9840911E+00,+1.9766850E+00
-56.5000E-03,+1.9790057E+00,+1.9769865E+00
-56.0000E-03,+1.9686338E+00,+1.9758307E+00
-55.5000E-03,+1.9562318E+00,+1.9757302E+00
-55.0000E-03,+1.9664228E+00,+1.9764840E+00
-54.5000E-03,+1.9787444E+00,+1.9764337E+00
-54.0000E-03,+1.9751062E+00,+1.9769865E+00
-53.5000E-03,+1.9754881E+00,+1.9758809E+00
-53.0000E-03,+1.9816991E+00,+1.9769362E+00
-52.5000E-03,+1.9829052E+00,+1.9767352E+00
-52.0000E-03,+1.9774378E+00,+1.9765342E+00
-51.5000E-03,+1.9755886E+00,+1.9757302E+00
-51.0000E-03,+1.9635082E+00,+1.9757302E+00
-50.5000E-03,+1.9686740E+00,+1.9769865E+00
-50.0000E-03,+1.9635082E+00,+1.9769865E+00
-49.5000E-03,+1.9687544E+00,+1.9757302E+00
-49.0000E-03,+1.9660409E+00,+1.9761322E+00
-48.5000E-03,+1.9870660E+00,+1.9757302E+00
-48.0000E-03,+1.9925132E+00,+1.9749262E+00
-47.5000E-03,+2.0036087E+00,+1.9759814E+00
-47.0000E-03,+2.0007142E+00,+1.9769362E+00
-46.5000E-03,+1.9969554E+00,+1.9769865E+00
-46.0000E-03,+1.9962318E+00,+1.9757302E+00
-45.5000E-03,+1.9835886E+00,+1.9757302E+00
-45.0000E-03,+1.9758700E+00,+1.9764839E+00
-44.5000E-03,+1.9743625E+00,+1.9779412E+00
-44.0000E-03,+1.9785836E+00,+1.9769865E+00
-43.5000E-03,+1.9641715E+00,+1.9769865E+00
-43.0000E-03,+1.9528348E+00,+1.9779412E+00
-42.5000E-03,+1.9473273E+00,+1.9769865E+00
-42.0000E-03,+1.9599102E+00,+1.9769865E+00
-41.5000E-03,+1.9706640E+00,+1.9769865E+00
-41.0000E-03,+1.9836690E+00,+1.9768357E+00
-40.5000E-03,+1.9807946E+00,+1.9769865E+00
-40.0000E-03,+1.9984831E+00,+1.9759814E+00
-39.5000E-03,+1.9851564E+00,+1.9769865E+00
-39.0000E-03,+1.9762921E+00,+1.9769865E+00
-38.5000E-03,+1.9697393E+00,+1.9769865E+00
-38.0000E-03,+1.9706439E+00,+1.9769865E+00
-37.5000E-03,+1.9805936E+00,+1.9769865E+00
-37.0000E-03,+1.9874077E+00,+1.9759312E+00
-36.5000E-03,+1.9916087E+00,+1.9769865E+00
-36.0000E-03,+1.9872067E+00,+1.9769865E+00
-35.5000E-03,+1.9904629E+00,+1.9769865E+00
-35.0000E-03,+1.9747645E+00,+1.9769865E+00
-34.5000E-03,+1.9638700E+00,+1.9769865E+00
-34.0000E-03,+1.9668248E+00,+1.9769865E+00
-33.5000E-03,+1.9629655E+00,+1.9769865E+00
-33.0000E-03,+1.9590660E+00,+1.9769865E+00
-32.5000E-03,+1.9634077E+00,+1.9769865E+00
-32.0000E-03,+1.9569353E+00,+1.9757302E+00
-31.5000E-03,+1.9553072E+00,+1.9768860E+00
-31.0000E-03,+1.9428650E+00,+1.9769865E+00
-30.5000E-03,+1.9549655E+00,+1.9769865E+00
-30.0000E-03,+1.9708449E+00,+1.9769865E+00
-29.5000E-03,+1.9741213E+00,+1.9762829E+00
-29.0000E-03,+1.9841916E+00,+1.9760819E+00
-28.5000E-03,+1.9881916E+00,+1.9769865E+00
-28.0000E-03,+1.9795283E+00,+1.9769865E+00
-27.5000E-03,+1.9837092E+00,+1.9769865E+00
-27.0000E-03,+1.9816992E+00,+1.9769865E+00
-26.5000E-03,+1.9811363E+00,+1.9763834E+00
-26.0000E-03,+1.9736992E+00,+1.9761322E+00
-25.5000E-03,+1.9859002E+00,+1.9757302E+00
-25.0000E-03,+1.9856188E+00,+1.9757302E+00
-24.5000E-03,+1.9817192E+00,+1.9769865E+00
-24.0000E-03,+1.9934780E+00,+1.9769865E+00
-23.5000E-03,+1.9814579E+00,+1.9769865E+00
-23.0000E-03,+1.9785233E+00,+1.9769865E+00
-22.5000E-03,+1.9785836E+00,+1.9769865E+00
-22.0000E-03,+1.9801514E+00,+1.9769865E+00
-21.5000E-03,+1.9849956E+00,+1.9769865E+00
-21.0000E-03,+1.9865233E+00,+1.9778910E+00
-20.5000E-03,+1.9882117E+00,+1.9775392E+00
-20.0000E-03,+1.9901414E+00,+1.9769865E+00
-19.5000E-03,+1.9605735E+00,+1.9769865E+00
-19.0000E-03,+1.9326941E+00,+1.9769865E+00
-18.5000E-03,+1.9475283E+00,+1.9769865E+00
-18.0000E-03,+1.9546439E+00,+1.9769865E+00
-17.5000E-03,+1.9593876E+00,+1.9769865E+00
-17.0000E-03,+1.9869052E+00,+1.9769865E+00
-16.5000E-03,+2.0095384E+00,+1.9769865E+00
-16.0000E-03,+2.0272670E+00,+1.9769865E+00
-15.5000E-03,+2.0156087E+00,+1.9757804E+00
-15.0000E-03,+2.0041112E+00,+1.9772377E+00
-14.5000E-03,+2.0056389E+00,+1.9765342E+00
-14.0000E-03,+2.0033072E+00,+1.9769865E+00
-13.5000E-03,+2.0041916E+00,+1.9769865E+00
-13.0000E-03,+2.0074479E+00,+1.9769865E+00
-12.5000E-03,+1.9886338E+00,+1.9769865E+00
-12.0000E-03,+1.9805936E+00,+1.9769865E+00
-11.5000E-03,+1.9939404E+00,+1.9769865E+00
-11.0000E-03,+2.0000911E+00,+1.9769865E+00
-10.5000E-03,+2.0102821E+00,+1.9769865E+00
-10.0000E-03,+2.0145635E+00,+1.9767352E+00
-9.5000E-03,+2.0403122E+00,+1.9769865E+00
-9.0000E-03,+2.0440509E+00,+1.9769865E+00
-8.5000E-03,+2.0479504E+00,+1.9769865E+00
-8.0000E-03,+2.0616992E+00,+1.9769865E+00
-7.5000E-03,+2.0591866E+00,+1.9769865E+00
-7.0000E-03,+2.0506841E+00,+1.9782427E+00
-6.5000E-03,+2.0543424E+00,+1.9781422E+00
-6.0000E-03,+2.0415584E+00,+1.9769865E+00
-5.5000E-03,+2.0164328E+00,+1.9782427E+00
-5.0000E-03,+2.0219002E+00,+1.9769865E+00
-4.5000E-03,+2.0108248E+00,+1.9782427E+00
-4.0000E-03,+1.9849755E+00,+1.9782427E+00
-3.5000E-03,+1.9872067E+00,+1.9782427E+00
-3.0000E-03,+1.9777996E+00,+1.9782427E+00
-2.5000E-03,+1.9748650E+00,+1.9782427E+00
-2.0000E-03,+1.9962519E+00,+1.9782427E+00
-1.5000E-03,+2.0289957E+00,+1.9782427E+00
-1.0000E-03,+2.0514278E+00,+1.9782427E+00
-500.0E-06,+2.0890359E+00,+1.9782427E+00
+0.0E+00,+2.1408952E+00,+1.9782427E+00
+500.0E-06,+2.1952469E+00,+1.9782427E+00
+1.0000E-03,+2.2066439E+00,+1.9782427E+00
+1.5000E-03,+2.2434680E+00,+1.9794990E+00
+2.0000E-03,+2.2622821E+00,+1.9799513E+00
+2.5000E-03,+2.2446137E+00,+1.9794990E+00
+3.0000E-03,+2.2138398E+00,+1.9807553E+00
+3.5000E-03,+2.1730760E+00,+1.9807553E+00
+4.0000E-03,+2.1335584E+00,+1.9807553E+00
+4.5000E-03,+2.0635082E+00,+1.9794990E+00
+5.0000E-03,+2.0513474E+00,+1.9807553E+00
+5.5000E-03,+2.0553474E+00,+1.9807553E+00
+6.0000E-03,+2.1037495E+00,+1.9820116E+00
+6.5000E-03,+2.0826639E+00,+1.9807553E+00
+7.0000E-03,+2.0382017E+00,+1.9807553E+00
+7.5000E-03,+2.0302419E+00,+1.9820116E+00
+8.0000E-03,+2.0473474E+00,+1.9820116E+00
+8.5000E-03,+2.0500408E+00,+1.9820116E+00
+9.0000E-03,+2.0452971E+00,+1.9820116E+00
+9.5000E-03,+2.0314881E+00,+1.9808056E+00
+10.0000E-03,+2.0314479E+00,+1.9810066E+00
+10.5000E-03,+2.0521515E+00,+1.9820116E+00
+11.0000E-03,+2.0577595E+00,+1.9826146E+00
+11.5000E-03,+2.0531163E+00,+1.9820116E+00
+12.0000E-03,+2.1169354E+00,+1.9820116E+00
+12.5000E-03,+2.1534580E+00,+1.9820116E+00
+13.0000E-03,+2.1707444E+00,+1.9820116E+00
+13.5000E-03,+2.1721313E+00,+1.9832679E+00
+14.0000E-03,+2.1951062E+00,+1.9826146E+00
+14.5000E-03,+2.1997091E+00,+1.9832679E+00
+15.0000E-03,+2.1017995E+00,+1.9832679E+00
+15.5000E-03,+1.8697191E+00,+1.9832679E+00
+16.0000E-03,+1.7623222E+00,+1.9832679E+00
+16.5000E-03,+1.7039906E+00,+1.9823633E+00
+17.0000E-03,+1.6847343E+00,+1.9820116E+00
+17.5000E-03,+1.7317495E+00,+1.9820116E+00
+18.0000E-03,+1.8567746E+00,+1.9820116E+00
+18.5000E-03,+1.8929554E+00,+1.9819111E+00
+19.0000E-03,+1.9319304E+00,+1.9807553E+00
+19.5000E-03,+1.9688348E+00,+1.9820116E+00
+20.0000E-03,+1.9725534E+00,+1.9820116E+00
+20.5000E-03,+1.9545835E+00,+1.9820116E+00
+21.0000E-03,+1.8927544E+00,+1.9811071E+00
+21.5000E-03,+1.8377996E+00,+1.9807553E+00
+22.0000E-03,+1.8010961E+00,+1.9807553E+00
+22.5000E-03,+1.8101413E+00,+1.9807553E+00
+23.0000E-03,+1.8027041E+00,+1.9807553E+00
+23.5000E-03,+1.7408951E+00,+1.9794990E+00
+24.0000E-03,+1.7001514E+00,+1.9794990E+00
+24.5000E-03,+1.7337193E+00,+1.9794990E+00
+25.0000E-03,+1.7725534E+00,+1.9794990E+00
+25.5000E-03,+1.8032871E+00,+1.9797000E+00
+26.0000E-03,+1.8126137E+00,+1.9794990E+00
+26.5000E-03,+1.7860006E+00,+1.9782427E+00
+27.0000E-03,+1.7968549E+00,+1.9786950E+00
+27.5000E-03,+1.8092369E+00,+1.9782427E+00
+28.0000E-03,+1.8384027E+00,+1.9782427E+00
+28.5000E-03,+1.8668650E+00,+1.9782427E+00
+29.0000E-03,+1.8826439E+00,+1.9782427E+00
+29.5000E-03,+1.8934378E+00,+1.9789463E+00
+30.0000E-03,+1.8947645E+00,+1.9782427E+00
+30.5000E-03,+1.9118098E+00,+1.9769865E+00
+31.0000E-03,+1.9490761E+00,+1.9782427E+00
+31.5000E-03,+2.0058399E+00,+1.9782427E+00
+32.0000E-03,+2.0233072E+00,+1.9772880E+00
+32.5000E-03,+1.9792870E+00,+1.9782427E+00
+33.0000E-03,+1.9009554E+00,+1.9769865E+00
+33.5000E-03,+1.8947243E+00,+1.9782427E+00
+34.0000E-03,+1.8864831E+00,+1.9771372E+00
+34.5000E-03,+1.9039102E+00,+1.9769865E+00
+35.0000E-03,+1.9349655E+00,+1.9769865E+00
+35.5000E-03,+1.9617997E+00,+1.9769865E+00
+36.0000E-03,+2.0220007E+00,+1.9775895E+00
+36.5000E-03,+2.0820208E+00,+1.9778407E+00
+37.0000E-03,+2.1223022E+00,+1.9771875E+00
+37.5000E-03,+2.1152670E+00,+1.9782427E+00
+38.0000E-03,+2.0930157E+00,+1.9771875E+00
+38.5000E-03,+2.0345433E+00,+1.9782427E+00
+39.0000E-03,+1.9390458E+00,+1.9788458E+00
+39.5000E-03,+1.9275283E+00,+1.9782427E+00
+40.0000E-03,+1.9212972E+00,+1.9782427E+00
+40.5000E-03,+2.0057998E+00,+1.9782427E+00
+41.0000E-03,+2.0891364E+00,+1.9782427E+00
+41.5000E-03,+2.1003323E+00,+1.9785945E+00
+42.0000E-03,+2.0799102E+00,+1.9789463E+00
+42.5000E-03,+2.1125534E+00,+1.9782427E+00
+43.0000E-03,+2.1195283E+00,+1.9782427E+00
+43.5000E-03,+2.1284328E+00,+1.9783432E+00
+44.0000E-03,+2.1066438E+00,+1.9793985E+00
+44.5000E-03,+2.1127745E+00,+1.9794990E+00
+45.0000E-03,+2.0779805E+00,+1.9802528E+00
+45.5000E-03,+2.0364328E+00,+1.9802025E+00
+46.0000E-03,+2.0682720E+00,+1.9794990E+00
+46.5000E-03,+2.1112670E+00,+1.9806045E+00
+47.0000E-03,+2.0884328E+00,+1.9807553E+00
+47.5000E-03,+2.0142619E+00,+1.9794990E+00
+48.0000E-03,+1.9072468E+00,+1.9807553E+00
+48.5000E-03,+1.7912066E+00,+1.9794990E+00
+49.0000E-03,+1.7087946E+00,+1.9794990E+00
+49.5000E-03,+1.6931564E+00,+1.9792980E+00
+50.0000E-03,+1.7057193E+00,+1.9794990E+00
+50.5000E-03,+1.7478500E+00,+1.9784437E+00
+51.0000E-03,+1.7629253E+00,+1.9782427E+00
+51.5000E-03,+1.7635283E+00,+1.9769865E+00
+52.0000E-03,+1.7403524E+00,+1.9774387E+00
+52.5000E-03,+1.7234077E+00,+1.9769865E+00
+53.0000E-03,+1.7793274E+00,+1.9769362E+00
+53.5000E-03,+1.9244732E+00,+1.9769865E+00
+54.0000E-03,+2.0016589E+00,+1.9760819E+00
+54.5000E-03,+1.9821615E+00,+1.9769865E+00
+55.0000E-03,+2.0347646E+00,+1.9769865E+00
+55.5000E-03,+2.1164730E+00,+1.9769865E+00
+56.0000E-03,+2.0890359E+00,+1.9769865E+00
+56.5000E-03,+2.1078701E+00,+1.9781422E+00
+57.0000E-03,+2.1630459E+00,+1.9782427E+00
+57.5000E-03,+2.2019001E+00,+1.9782427E+00
+58.0000E-03,+2.1559705E+00,+1.9787955E+00
+58.5000E-03,+2.0998096E+00,+1.9794990E+00
+59.0000E-03,+2.0532569E+00,+1.9794990E+00
+59.5000E-03,+2.0374780E+00,+1.9794488E+00
+60.0000E-03,+1.9725534E+00,+1.9784940E+00
+60.5000E-03,+2.0039907E+00,+1.9786950E+00
+61.0000E-03,+1.9795484E+00,+1.9782427E+00
+61.5000E-03,+1.9376992E+00,+1.9794990E+00
+62.0000E-03,+1.9226037E+00,+1.9784438E+00
+62.5000E-03,+1.9670258E+00,+1.9794990E+00
+63.0000E-03,+1.9600710E+00,+1.9782427E+00
+63.5000E-03,+1.9090961E+00,+1.9786447E+00
+64.0000E-03,+1.9578801E+00,+1.9794990E+00
+64.5000E-03,+2.0339806E+00,+1.9790468E+00
+65.0000E-03,+2.0379805E+00,+1.9779915E+00
+65.5000E-03,+1.9439303E+00,+1.9782930E+00
+66.0000E-03,+1.8844730E+00,+1.9783935E+00
+66.5000E-03,+1.8123322E+00,+1.9785945E+00
+67.0000E-03,+1.7934982E+00,+1.9782427E+00
+67.5000E-03,+1.8669253E+00,+1.9782427E+00
+68.0000E-03,+1.7963323E+00,+1.9769865E+00
+68.5000E-03,+1.7559102E+00,+1.9769865E+00
+69.0000E-03,+1.7445132E+00,+1.9770870E+00
+69.5000E-03,+1.7870460E+00,+1.9760317E+00
+70.0000E-03,+1.8114479E+00,+1.9769865E+00
+70.5000E-03,+1.8172770E+00,+1.9762829E+00
+71.0000E-03,+1.7864429E+00,+1.9769865E+00
+71.5000E-03,+1.7766540E+00,+1.9757302E+00
+72.0000E-03,+1.8245133E+00,+1.9757302E+00
+72.5000E-03,+1.8659203E+00,+1.9757302E+00
+73.0000E-03,+1.9474882E+00,+1.9757302E+00
+73.5000E-03,+2.0066238E+00,+1.9757302E+00
+74.0000E-03,+2.0652369E+00,+1.9757302E+00
+74.5000E-03,+2.0896790E+00,+1.9759312E+00
+75.0000E-03,+2.0268247E+00,+1.9769865E+00
+75.5000E-03,+1.9430659E+00,+1.9767855E+00
+76.0000E-03,+1.9271464E+00,+1.9757302E+00
+76.5000E-03,+1.9691565E+00,+1.9769865E+00
+77.0000E-03,+1.9707644E+00,+1.9757302E+00
+77.5000E-03,+1.9881313E+00,+1.9757302E+00
+78.0000E-03,+1.9949052E+00,+1.9757302E+00
+78.5000E-03,+1.9159503E+00,+1.9757302E+00
+79.0000E-03,+1.8483524E+00,+1.9757302E+00
+79.5000E-03,+1.8418600E+00,+1.9757302E+00
+80.0000E-03,+1.8900409E+00,+1.9757302E+00
+80.5000E-03,+1.9214981E+00,+1.9757302E+00
+81.0000E-03,+1.9301213E+00,+1.9745744E+00
+81.5000E-03,+1.9653575E+00,+1.9757302E+00
+82.0000E-03,+2.0387847E+00,+1.9757302E+00
+82.5000E-03,+2.0704429E+00,+1.9757302E+00
+83.0000E-03,+2.0548650E+00,+1.9757302E+00
+83.5000E-03,+2.0313071E+00,+1.9760819E+00
+84.0000E-03,+2.0055986E+00,+1.9758809E+00
+84.5000E-03,+2.0267042E+00,+1.9769865E+00
+85.0000E-03,+2.0062217E+00,+1.9757302E+00
+85.5000E-03,+2.0383223E+00,+1.9757302E+00
+86.0000E-03,+2.1461415E+00,+1.9769865E+00
+86.5000E-03,+2.2264831E+00,+1.9769865E+00
+87.0000E-03,+2.2820208E+00,+1.9769865E+00
+87.5000E-03,+2.3122519E+00,+1.9769865E+00
+88.0000E-03,+2.2925735E+00,+1.9782427E+00
+88.5000E-03,+2.2692569E+00,+1.9782427E+00
+89.0000E-03,+2.2224428E+00,+1.9782427E+00
+89.5000E-03,+2.1387242E+00,+1.9794990E+00
+90.0000E-03,+2.0792871E+00,+1.9792478E+00
+90.5000E-03,+2.1715686E+00,+1.9794990E+00
+91.0000E-03,+2.2219404E+00,+1.9794990E+00
+91.5000E-03,+2.1707242E+00,+1.9794990E+00
+92.0000E-03,+2.1074077E+00,+1.9794990E+00
+92.5000E-03,+2.1204932E+00,+1.9794990E+00
+93.0000E-03,+2.1480710E+00,+1.9798005E+00
+93.5000E-03,+2.1529755E+00,+1.9795995E+00
+94.0000E-03,+2.1197293E+00,+1.9807553E+00
+94.5000E-03,+2.0429854E+00,+1.9807553E+00
+95.0000E-03,+1.8657191E+00,+1.9794990E+00
+95.5000E-03,+1.7017995E+00,+1.9794990E+00
+96.0000E-03,+1.6118097E+00,+1.9794990E+00
+96.5000E-03,+1.6074077E+00,+1.9794990E+00
+97.0000E-03,+1.6445334E+00,+1.9782930E+00
+97.5000E-03,+1.6940610E+00,+1.9782427E+00
+98.0000E-03,+1.7669254E+00,+1.9774387E+00
+98.5000E-03,+1.8196288E+00,+1.9776397E+00
+99.0000E-03,+1.8748650E+00,+1.9782427E+00
+99.5000E-03,+1.9267042E+00,+1.9780417E+00
+100.0000E-03,+1.9308449E+00,+1.9782427E+00
+100.5000E-03,+1.9228449E+00,+1.9782427E+00
+101.0000E-03,+1.9119103E+00,+1.9782427E+00
+101.5000E-03,+1.9256389E+00,+1.9763332E+00
+102.0000E-03,+1.9415383E+00,+1.9774387E+00
+102.5000E-03,+1.9400911E+00,+1.9782427E+00
+103.0000E-03,+1.9401715E+00,+1.9781925E+00
+103.5000E-03,+1.9238499E+00,+1.9769865E+00
+104.0000E-03,+1.9166137E+00,+1.9769865E+00
+104.5000E-03,+1.9381615E+00,+1.9769865E+00
+105.0000E-03,+1.9720509E+00,+1.9782427E+00
+105.5000E-03,+1.9727545E+00,+1.9772880E+00
+106.0000E-03,+1.9659404E+00,+1.9781422E+00
+106.5000E-03,+2.0048550E+00,+1.9769865E+00
+107.0000E-03,+2.0475484E+00,+1.9772880E+00
+107.5000E-03,+2.0322519E+00,+1.9777402E+00
+108.0000E-03,+1.9953072E+00,+1.9775392E+00
+108.5000E-03,+1.9822016E+00,+1.9782427E+00
+109.0000E-03,+2.0026640E+00,+1.9782427E+00
+109.5000E-03,+2.0394680E+00,+1.9769865E+00
+110.0000E-03,+2.0795887E+00,+1.9779915E+00
+110.5000E-03,+2.0838499E+00,+1.9782427E+00
+111.0000E-03,+2.0636690E+00,+1.9782427E+00
+111.5000E-03,+2.0565936E+00,+1.9782427E+00
+112.0000E-03,+2.0718298E+00,+1.9782427E+00
+112.5000E-03,+2.0685333E+00,+1.9794990E+00
+113.0000E-03,+2.0376991E+00,+1.9784437E+00
+113.5000E-03,+1.9972971E+00,+1.9794990E+00
+114.0000E-03,+1.9500811E+00,+1.9788458E+00
+114.5000E-03,+2.0140811E+00,+1.9786950E+00
+115.0000E-03,+2.0260208E+00,+1.9782427E+00
+115.5000E-03,+2.0577997E+00,+1.9794488E+00
+116.0000E-03,+2.1068449E+00,+1.9794990E+00
+116.5000E-03,+2.1390058E+00,+1.9791473E+00
+117.0000E-03,+2.0979202E+00,+1.9794990E+00
+117.5000E-03,+2.0370760E+00,+1.9794990E+00
+118.0000E-03,+2.0077695E+00,+1.9798005E+00
+118.5000E-03,+2.0830660E+00,+1.9783433E+00
+119.0000E-03,+2.0764528E+00,+1.9783432E+00
+119.5000E-03,+1.9840709E+00,+1.9782427E+00
+120.0000E-03,+1.9521514E+00,+1.9794990E+00
+120.5000E-03,+1.9396892E+00,+1.9794990E+00
+121.0000E-03,+1.9937395E+00,+1.9794990E+00
+121.5000E-03,+2.0640711E+00,+1.9793483E+00
+122.0000E-03,+2.1149253E+00,+1.9794990E+00
+122.5000E-03,+2.1424027E+00,+1.9794990E+00
+123.0000E-03,+2.1322720E+00,+1.9807553E+00
+123.5000E-03,+2.0606940E+00,+1.9794990E+00
+124.0000E-03,+1.9997091E+00,+1.9799010E+00
+124.5000E-03,+1.9307243E+00,+1.9807553E+00
+125.0000E-03,+1.8866237E+00,+1.9794990E+00
+125.5000E-03,+1.8030057E+00,+1.9794990E+00
+126.0000E-03,+1.7968751E+00,+1.9794990E+00
+126.5000E-03,+1.8269454E+00,+1.9801020E+00
+127.0000E-03,+1.8781616E+00,+1.9794990E+00
+127.5000E-03,+1.9543625E+00,+1.9792478E+00
+128.0000E-03,+1.9652569E+00,+1.9782427E+00
+128.5000E-03,+1.8936388E+00,+1.9793483E+00
+129.0000E-03,+1.8558901E+00,+1.9785945E+00
+129.5000E-03,+1.8676289E+00,+1.9794990E+00
+130.0000E-03,+1.9353676E+00,+1.9794990E+00
+130.5000E-03,+1.9620007E+00,+1.9782427E+00
+131.0000E-03,+1.9171363E+00,+1.9793985E+00
+131.5000E-03,+1.8352066E+00,+1.9793985E+00
+132.0000E-03,+1.7998298E+00,+1.9782427E+00
+132.5000E-03,+1.8603927E+00,+1.9782427E+00
+133.0000E-03,+1.9125535E+00,+1.9782427E+00
+133.5000E-03,+1.9935384E+00,+1.9773382E+00
+134.0000E-03,+2.0677294E+00,+1.9782427E+00
+134.5000E-03,+2.1133775E+00,+1.9769865E+00
+135.0000E-03,+2.0758700E+00,+1.9784940E+00
+135.5000E-03,+2.0161714E+00,+1.9786950E+00
+136.0000E-03,+1.9903826E+00,+1.9788458E+00
+136.5000E-03,+2.0344430E+00,+1.9782427E+00
+137.0000E-03,+2.0708851E+00,+1.9792980E+00
+137.5000E-03,+2.0444127E+00,+1.9782427E+00
+138.0000E-03,+2.0345032E+00,+1.9782427E+00
+138.5000E-03,+2.0144228E+00,+1.9794990E+00
+139.0000E-03,+2.0217394E+00,+1.9794990E+00
+139.5000E-03,+2.0394479E+00,+1.9794990E+00
+140.0000E-03,+2.0662218E+00,+1.9794990E+00
+140.5000E-03,+2.0869253E+00,+1.9795493E+00
+141.0000E-03,+2.0549252E+00,+1.9794990E+00
+141.5000E-03,+2.0489755E+00,+1.9804036E+00
+142.0000E-03,+2.0559103E+00,+1.9794990E+00
+142.5000E-03,+2.1247143E+00,+1.9794990E+00
+143.0000E-03,+2.1474479E+00,+1.9794990E+00
+143.5000E-03,+2.0869051E+00,+1.9807553E+00
+144.0000E-03,+2.0084328E+00,+1.9807553E+00
+144.5000E-03,+1.9737192E+00,+1.9807553E+00
+145.0000E-03,+1.9481313E+00,+1.9802528E+00
+145.5000E-03,+1.9149655E+00,+1.9807553E+00
+146.0000E-03,+1.9477896E+00,+1.9807553E+00
+146.5000E-03,+1.9698801E+00,+1.9807553E+00
+147.0000E-03,+1.9885936E+00,+1.9807553E+00
+147.5000E-03,+1.9984831E+00,+1.9807553E+00
+148.0000E-03,+2.0210157E+00,+1.9799513E+00
+148.5000E-03,+2.0298198E+00,+1.9801020E+00
+149.0000E-03,+2.0429253E+00,+1.9807553E+00
+149.5000E-03,+2.0300207E+00,+1.9807553E+00
+150.0000E-03,+1.9810962E+00,+1.9807553E+00
+150.5000E-03,+1.9829253E+00,+1.9807553E+00
+151.0000E-03,+1.9413774E+00,+1.9794990E+00
+151.5000E-03,+1.9297393E+00,+1.9807553E+00
+152.0000E-03,+1.9366137E+00,+1.9803030E+00
+152.5000E-03,+1.9391866E+00,+1.9807553E+00
+153.0000E-03,+1.9543223E+00,+1.9807553E+00
+153.5000E-03,+2.0234480E+00,+1.9807553E+00
+154.0000E-03,+2.0833876E+00,+1.9807553E+00
+154.5000E-03,+2.0871062E+00,+1.9807553E+00
+155.0000E-03,+2.0896389E+00,+1.9807553E+00
+155.5000E-03,+2.0994881E+00,+1.9810568E+00
+156.0000E-03,+2.1169956E+00,+1.9807553E+00
+156.5000E-03,+2.0987443E+00,+1.9807553E+00
+157.0000E-03,+2.0824429E+00,+1.9820116E+00
+157.5000E-03,+2.0796891E+00,+1.9807553E+00
+158.0000E-03,+2.0867644E+00,+1.9825644E+00
+158.5000E-03,+2.0182418E+00,+1.9820116E+00
+159.0000E-03,+1.9126940E+00,+1.9820116E+00
+159.5000E-03,+1.8495182E+00,+1.9820116E+00
+160.0000E-03,+1.8660208E+00,+1.9810066E+00
+160.5000E-03,+1.9094580E+00,+1.9807553E+00
+161.0000E-03,+1.9672872E+00,+1.9807553E+00
+161.5000E-03,+1.9815785E+00,+1.9811573E+00
+162.0000E-03,+1.9643926E+00,+1.9807553E+00
+162.5000E-03,+1.9660208E+00,+1.9820116E+00
+163.0000E-03,+1.9914479E+00,+1.9807553E+00
+163.5000E-03,+1.9922921E+00,+1.9811573E+00
+164.0000E-03,+1.9769755E+00,+1.9820116E+00
+164.5000E-03,+1.9873474E+00,+1.9807553E+00
+165.0000E-03,+1.9999907E+00,+1.9810066E+00
+165.5000E-03,+2.0094378E+00,+1.9820116E+00
+166.0000E-03,+2.0018398E+00,+1.9809061E+00
+166.5000E-03,+1.9806941E+00,+1.9816598E+00
+167.0000E-03,+1.9422619E+00,+1.9807553E+00
+167.5000E-03,+1.9468248E+00,+1.9812578E+00
+168.0000E-03,+1.9613776E+00,+1.9820116E+00
+168.5000E-03,+1.9876087E+00,+1.9808558E+00
+169.0000E-03,+1.9955283E+00,+1.9819111E+00
+169.5000E-03,+1.9845735E+00,+1.9810568E+00
+170.0000E-03,+1.9545635E+00,+1.9812578E+00
+170.5000E-03,+1.9232469E+00,+1.9807553E+00
+171.0000E-03,+1.9202720E+00,+1.9807553E+00
+171.5000E-03,+1.9241112E+00,+1.9807553E+00
+172.0000E-03,+1.9360911E+00,+1.9819613E+00
+172.5000E-03,+1.9630057E+00,+1.9805041E+00
+173.0000E-03,+1.9825836E+00,+1.9807553E+00
+173.5000E-03,+2.0054178E+00,+1.9807553E+00
+174.0000E-03,+2.0211765E+00,+1.9807553E+00
+174.5000E-03,+1.9755684E+00,+1.9807553E+00
+175.0000E-03,+1.9715484E+00,+1.9807553E+00
+175.5000E-03,+1.9946037E+00,+1.9809563E+00
+176.0000E-03,+1.9970961E+00,+1.9811573E+00
+176.5000E-03,+1.9729755E+00,+1.9807553E+00
+177.0000E-03,+1.9693977E+00,+1.9807553E+00
+177.5000E-03,+1.9790861E+00,+1.9810066E+00
+178.0000E-03,+2.0185234E+00,+1.9819613E+00
+178.5000E-03,+2.0760911E+00,+1.9818608E+00
+179.0000E-03,+2.1141816E+00,+1.9807553E+00
+179.5000E-03,+2.1173373E+00,+1.9807553E+00
+180.0000E-03,+2.0976790E+00,+1.9820116E+00
+180.5000E-03,+2.0993071E+00,+1.9820116E+00
+181.0000E-03,+2.0592468E+00,+1.9820116E+00
+181.5000E-03,+2.0040911E+00,+1.9820116E+00
+182.0000E-03,+1.9774178E+00,+1.9820116E+00
+182.5000E-03,+1.9894378E+00,+1.9820116E+00
+183.0000E-03,+1.9779403E+00,+1.9820116E+00
+183.5000E-03,+1.9618800E+00,+1.9820116E+00
+184.0000E-03,+1.9854982E+00,+1.9820116E+00
+184.5000E-03,+2.0311465E+00,+1.9820116E+00
+185.0000E-03,+2.0417996E+00,+1.9817603E+00
+185.5000E-03,+2.0150660E+00,+1.9828156E+00
+186.0000E-03,+1.9669453E+00,+1.9820116E+00
+186.5000E-03,+1.9330760E+00,+1.9807553E+00
+187.0000E-03,+1.9352469E+00,+1.9820116E+00
+187.5000E-03,+1.9524529E+00,+1.9807553E+00
+188.0000E-03,+1.9576991E+00,+1.9820116E+00
+188.5000E-03,+1.9390860E+00,+1.9816096E+00
+189.0000E-03,+1.9279906E+00,+1.9814086E+00
+189.5000E-03,+1.9441916E+00,+1.9820116E+00
+190.0000E-03,+1.9361715E+00,+1.9820116E+00
+190.5000E-03,+1.9640912E+00,+1.9820116E+00
+191.0000E-03,+1.9965334E+00,+1.9820116E+00
+191.5000E-03,+2.0191062E+00,+1.9823633E+00
+192.0000E-03,+1.9988046E+00,+1.9820116E+00
+192.5000E-03,+1.9914480E+00,+1.9820116E+00
+193.0000E-03,+2.0168148E+00,+1.9820116E+00
+193.5000E-03,+2.0372971E+00,+1.9820116E+00
+194.0000E-03,+2.0580007E+00,+1.9820116E+00
+194.5000E-03,+2.0788449E+00,+1.9810568E+00
+195.0000E-03,+2.0719504E+00,+1.9820116E+00
+195.5000E-03,+2.0475282E+00,+1.9820116E+00
+196.0000E-03,+1.9924127E+00,+1.9820116E+00
+196.5000E-03,+1.9480911E+00,+1.9832679E+00
+197.0000E-03,+1.9410760E+00,+1.9820116E+00
+197.5000E-03,+1.9452167E+00,+1.9820116E+00
+198.0000E-03,+1.9406539E+00,+1.9820116E+00
+198.5000E-03,+1.9283725E+00,+1.9820116E+00
+199.0000E-03,+1.9238901E+00,+1.9820116E+00
+199.5000E-03,+1.9210559E+00,+1.9820116E+00
+200.0000E-03,+1.9067243E+00,+1.9820116E+00
+200.5000E-03,+1.8961112E+00,+1.9809563E+00
+201.0000E-03,+1.9122319E+00,+1.9820116E+00
+201.5000E-03,+1.9297795E+00,+1.9814086E+00
+202.0000E-03,+1.9379002E+00,+1.9820116E+00
+202.5000E-03,+1.9856188E+00,+1.9807553E+00
+203.0000E-03,+2.0472067E+00,+1.9820116E+00
+203.5000E-03,+2.0870862E+00,+1.9807553E+00
+204.0000E-03,+2.1071665E+00,+1.9820116E+00
+204.5000E-03,+2.1424630E+00,+1.9820116E+00
+205.0000E-03,+2.1705434E+00,+1.9832679E+00
+205.5000E-03,+2.1861615E+00,+1.9820116E+00
+206.0000E-03,+2.2092569E+00,+1.9821121E+00
+206.5000E-03,+2.1987845E+00,+1.9845241E+00
+207.0000E-03,+2.1680911E+00,+1.9832679E+00
+207.5000E-03,+2.1432066E+00,+1.9845241E+00
+208.0000E-03,+2.0896991E+00,+1.9845241E+00
+208.5000E-03,+2.0531966E+00,+1.9836196E+00
+209.0000E-03,+2.0009755E+00,+1.9843734E+00
+209.5000E-03,+1.9504428E+00,+1.9832679E+00
+210.0000E-03,+1.9835083E+00,+1.9832679E+00
+210.5000E-03,+2.0703425E+00,+1.9845241E+00
+211.0000E-03,+2.1009353E+00,+1.9845241E+00
+211.5000E-03,+2.0781212E+00,+1.9841221E+00
+212.0000E-03,+1.9795281E+00,+1.9845241E+00
+212.5000E-03,+1.9001915E+00,+1.9845241E+00
+213.0000E-03,+1.8630057E+00,+1.9834689E+00
+213.5000E-03,+1.8902218E+00,+1.9832679E+00
+214.0000E-03,+1.9247545E+00,+1.9832679E+00
+214.5000E-03,+1.9461614E+00,+1.9832679E+00
+215.0000E-03,+1.9365735E+00,+1.9832679E+00
+215.5000E-03,+1.9372972E+00,+1.9833181E+00
+216.0000E-03,+1.9539404E+00,+1.9832679E+00
+216.5000E-03,+1.9684127E+00,+1.9823633E+00
+217.0000E-03,+1.9594278E+00,+1.9832679E+00
+217.5000E-03,+1.9346639E+00,+1.9832679E+00
+218.0000E-03,+1.9330961E+00,+1.9832679E+00
+218.5000E-03,+1.9170559E+00,+1.9832679E+00
+219.0000E-03,+1.9293575E+00,+1.9832679E+00
+219.5000E-03,+1.9942419E+00,+1.9832679E+00
+220.0000E-03,+2.0432067E+00,+1.9832679E+00
+220.5000E-03,+2.0491965E+00,+1.9832679E+00
+221.0000E-03,+2.0021413E+00,+1.9845241E+00
+221.5000E-03,+1.9791665E+00,+1.9832679E+00
+222.0000E-03,+1.9588649E+00,+1.9833181E+00
+222.5000E-03,+1.9575786E+00,+1.9845241E+00
+223.0000E-03,+1.9483323E+00,+1.9837201E+00
+223.5000E-03,+1.9332770E+00,+1.9832679E+00
+224.0000E-03,+1.9350861E+00,+1.9832679E+00
+224.5000E-03,+1.9362318E+00,+1.9830669E+00
+225.0000E-03,+1.9770761E+00,+1.9832679E+00
+225.5000E-03,+1.9942619E+00,+1.9832679E+00
+226.0000E-03,+1.9668047E+00,+1.9832679E+00
+226.5000E-03,+2.0164731E+00,+1.9832679E+00
+227.0000E-03,+2.0373173E+00,+1.9837201E+00
+227.5000E-03,+2.0441113E+00,+1.9832679E+00
+228.0000E-03,+2.0709655E+00,+1.9845241E+00
+228.5000E-03,+2.1113273E+00,+1.9834186E+00
+229.0000E-03,+2.0774177E+00,+1.9841724E+00
+229.5000E-03,+2.0329353E+00,+1.9839714E+00
+230.0000E-03,+2.0272268E+00,+1.9837704E+00
+230.5000E-03,+2.0156690E+00,+1.9842226E+00
+231.0000E-03,+2.0385233E+00,+1.9832679E+00
+231.5000E-03,+2.0549655E+00,+1.9845241E+00
+232.0000E-03,+2.0400710E+00,+1.9842226E+00
+232.5000E-03,+2.0382821E+00,+1.9840216E+00
+233.0000E-03,+2.0036891E+00,+1.9839714E+00
+233.5000E-03,+1.9766338E+00,+1.9845241E+00
+234.0000E-03,+1.9986640E+00,+1.9832679E+00
+234.5000E-03,+2.0122118E+00,+1.9832679E+00
+235.0000E-03,+2.0156690E+00,+1.9835191E+00
+235.5000E-03,+2.0018399E+00,+1.9845241E+00
+236.0000E-03,+1.9817997E+00,+1.9845241E+00
+236.5000E-03,+1.9767142E+00,+1.9845241E+00
+237.0000E-03,+1.9672468E+00,+1.9845241E+00
+237.5000E-03,+1.9549655E+00,+1.9845241E+00
+238.0000E-03,+1.9536991E+00,+1.9845241E+00
+238.5000E-03,+1.9580208E+00,+1.9841221E+00
+239.0000E-03,+1.9669253E+00,+1.9845241E+00
+239.5000E-03,+1.9648549E+00,+1.9832679E+00
+240.0000E-03,+1.9740610E+00,+1.9845241E+00
+240.5000E-03,+2.0106841E+00,+1.9845241E+00
+241.0000E-03,+2.0283524E+00,+1.9834186E+00
+241.5000E-03,+2.0251564E+00,+1.9832679E+00
+242.0000E-03,+2.0196690E+00,+1.9839714E+00
+242.5000E-03,+2.0238097E+00,+1.9837704E+00
+243.0000E-03,+1.9998297E+00,+1.9845241E+00
+243.5000E-03,+1.9935183E+00,+1.9832679E+00
+244.0000E-03,+2.0135987E+00,+1.9845241E+00
+244.5000E-03,+1.9904428E+00,+1.9842226E+00
+245.0000E-03,+1.9677292E+00,+1.9845241E+00
+245.5000E-03,+1.9633072E+00,+1.9839714E+00
+246.0000E-03,+1.9807946E+00,+1.9845241E+00
+246.5000E-03,+1.9935585E+00,+1.9834186E+00
+247.0000E-03,+2.0333575E+00,+1.9832679E+00
+247.5000E-03,+2.0338600E+00,+1.9845241E+00
+248.0000E-03,+2.0417997E+00,+1.9845241E+00
+248.5000E-03,+2.0587243E+00,+1.9845241E+00
+249.0000E-03,+2.0706238E+00,+1.9853784E+00
+249.5000E-03,+2.0759906E+00,+1.9845241E+00
+250.0000E-03,+2.0805936E+00,+1.9845241E+00
+250.5000E-03,+2.0559504E+00,+1.9845241E+00
+251.0000E-03,+2.0018799E+00,+1.9849262E+00
+251.5000E-03,+1.9561313E+00,+1.9845241E+00
+252.0000E-03,+1.9797293E+00,+1.9845241E+00
+252.5000E-03,+1.9570760E+00,+1.9855292E+00
+253.0000E-03,+1.8793273E+00,+1.9857302E+00
+253.5000E-03,+1.8758901E+00,+1.9845241E+00
+254.0000E-03,+1.8965534E+00,+1.9854287E+00
+254.5000E-03,+1.9255384E+00,+1.9845241E+00
+255.0000E-03,+1.9568750E+00,+1.9845241E+00
+255.5000E-03,+1.9262619E+00,+1.9835694E+00
+256.0000E-03,+1.8938599E+00,+1.9845241E+00
+256.5000E-03,+1.8824831E+00,+1.9857804E+00
+257.0000E-03,+1.8944027E+00,+1.9845241E+00
+257.5000E-03,+1.9364731E+00,+1.9845241E+00
+258.0000E-03,+1.9758500E+00,+1.9845241E+00
+258.5000E-03,+1.9873272E+00,+1.9845241E+00
+259.0000E-03,+1.9765534E+00,+1.9845241E+00
+259.5000E-03,+1.9812369E+00,+1.9845241E+00
+260.0000E-03,+1.9627042E+00,+1.9845241E+00
+260.5000E-03,+1.9782419E+00,+1.9853282E+00
+261.0000E-03,+1.9797092E+00,+1.9845241E+00
+261.5000E-03,+1.9802719E+00,+1.9845241E+00
+262.0000E-03,+1.9604730E+00,+1.9847252E+00
+262.5000E-03,+2.0082318E+00,+1.9845241E+00
+263.0000E-03,+2.0435283E+00,+1.9845241E+00
+263.5000E-03,+2.0416388E+00,+1.9845241E+00
+264.0000E-03,+2.0196690E+00,+1.9845241E+00
+264.5000E-03,+2.0535585E+00,+1.9845241E+00
+265.0000E-03,+2.0900409E+00,+1.9857804E+00
+265.5000E-03,+2.0792066E+00,+1.9857804E+00
+266.0000E-03,+2.0463021E+00,+1.9856297E+00
+266.5000E-03,+2.0105433E+00,+1.9857804E+00
+267.0000E-03,+1.9803121E+00,+1.9857804E+00
+267.5000E-03,+1.9701414E+00,+1.9857804E+00
+268.0000E-03,+1.9875484E+00,+1.9857804E+00
+268.5000E-03,+2.0149252E+00,+1.9870367E+00
+269.0000E-03,+2.0046338E+00,+1.9857804E+00
+269.5000E-03,+1.9746439E+00,+1.9857804E+00
+270.0000E-03,+1.9191865E+00,+1.9857804E+00
+270.5000E-03,+1.8535182E+00,+1.9857804E+00
+271.0000E-03,+1.8070258E+00,+1.9848759E+00
+271.5000E-03,+1.8208349E+00,+1.9846749E+00
+272.0000E-03,+1.8403524E+00,+1.9845241E+00
+272.5000E-03,+1.8164730E+00,+1.9845241E+00
+273.0000E-03,+1.7953071E+00,+1.9837201E+00
+273.5000E-03,+1.8247947E+00,+1.9832679E+00
+274.0000E-03,+1.9106843E+00,+1.9845241E+00
+274.5000E-03,+1.9661615E+00,+1.9845241E+00
+275.0000E-03,+2.0001917E+00,+1.9845241E+00
+275.5000E-03,+2.0558298E+00,+1.9845241E+00
+276.0000E-03,+2.0807544E+00,+1.9845241E+00
+276.5000E-03,+2.0440508E+00,+1.9845241E+00
+277.0000E-03,+2.0023424E+00,+1.9840719E+00
+277.5000E-03,+2.0375786E+00,+1.9845241E+00
+278.0000E-03,+2.0505233E+00,+1.9857302E+00
+278.5000E-03,+2.0544227E+00,+1.9845241E+00
+279.0000E-03,+2.0378801E+00,+1.9845241E+00
+279.5000E-03,+1.9927343E+00,+1.9845241E+00
+280.0000E-03,+1.9842117E+00,+1.9845241E+00
+280.5000E-03,+1.9875484E+00,+1.9845241E+00
+281.0000E-03,+1.9990458E+00,+1.9845241E+00
+281.5000E-03,+2.0286943E+00,+1.9845241E+00
+282.0000E-03,+2.0497594E+00,+1.9848256E+00
+282.5000E-03,+2.0370761E+00,+1.9845241E+00
+283.0000E-03,+2.0353273E+00,+1.9845241E+00
+283.5000E-03,+2.0191263E+00,+1.9848759E+00
+284.0000E-03,+2.0161112E+00,+1.9845241E+00
+284.5000E-03,+2.0139404E+00,+1.9857804E+00
+285.0000E-03,+1.9668247E+00,+1.9855292E+00
+285.5000E-03,+1.9013976E+00,+1.9845241E+00
+286.0000E-03,+1.8977393E+00,+1.9845241E+00
+286.5000E-03,+1.9305434E+00,+1.9845241E+00
+287.0000E-03,+1.9625635E+00,+1.9843231E+00
+287.5000E-03,+1.9670258E+00,+1.9845241E+00
+288.0000E-03,+1.9377996E+00,+1.9845241E+00
+288.5000E-03,+1.9277092E+00,+1.9845241E+00
+289.0000E-03,+1.9432268E+00,+1.9845241E+00
+289.5000E-03,+1.9414379E+00,+1.9845241E+00
+290.0000E-03,+1.8962719E+00,+1.9842729E+00
+290.5000E-03,+1.8591263E+00,+1.9845241E+00
+291.0000E-03,+1.8804530E+00,+1.9843734E+00
+291.5000E-03,+1.8897997E+00,+1.9845241E+00
+292.0000E-03,+1.9109253E+00,+1.9832679E+00
+292.5000E-03,+1.9287343E+00,+1.9832679E+00
+293.0000E-03,+1.9160107E+00,+1.9845241E+00
+293.5000E-03,+1.9303424E+00,+1.9832679E+00
+294.0000E-03,+1.9511665E+00,+1.9833684E+00
+294.5000E-03,+1.9592067E+00,+1.9835694E+00
+295.0000E-03,+1.9654177E+00,+1.9832679E+00
+295.5000E-03,+1.9748248E+00,+1.9839714E+00
+296.0000E-03,+1.9748449E+00,+1.9829161E+00
+296.5000E-03,+1.9871263E+00,+1.9834186E+00
+297.0000E-03,+1.9661815E+00,+1.9820618E+00
+297.5000E-03,+1.9651162E+00,+1.9835191E+00
+298.0000E-03,+1.9546037E+00,+1.9832679E+00
+298.5000E-03,+1.9466840E+00,+1.9832679E+00
+299.0000E-03,+1.9325936E+00,+1.9832679E+00
+299.5000E-03,+1.9155283E+00,+1.9832679E+00
+300.0000E-03,+1.9077293E+00,+1.9832679E+00
+300.5000E-03,+1.8950861E+00,+1.9834689E+00
+301.0000E-03,+1.9181414E+00,+1.9832679E+00
+301.5000E-03,+1.9393072E+00,+1.9832679E+00
+302.0000E-03,+1.9545232E+00,+1.9832679E+00
+302.5000E-03,+1.9489353E+00,+1.9832679E+00
+303.0000E-03,+1.9349253E+00,+1.9832176E+00
+303.5000E-03,+1.9460811E+00,+1.9831171E+00
+304.0000E-03,+1.9542017E+00,+1.9829161E+00
+304.5000E-03,+1.9801314E+00,+1.9832679E+00
+305.0000E-03,+1.9910459E+00,+1.9820116E+00
+305.5000E-03,+2.0095183E+00,+1.9832679E+00
+306.0000E-03,+2.0356691E+00,+1.9820116E+00
+306.5000E-03,+2.0514077E+00,+1.9832679E+00
+307.0000E-03,+2.0600711E+00,+1.9832679E+00
+307.5000E-03,+2.0555685E+00,+1.9840216E+00
+308.0000E-03,+2.0356287E+00,+1.9832679E+00
+308.5000E-03,+2.0214579E+00,+1.9836196E+00
+309.0000E-03,+2.0061212E+00,+1.9843734E+00
+309.5000E-03,+2.0115082E+00,+1.9833181E+00
+310.0000E-03,+2.0251163E+00,+1.9832679E+00
+310.5000E-03,+2.0430660E+00,+1.9832679E+00
+311.0000E-03,+2.0339403E+00,+1.9838709E+00
+311.5000E-03,+2.0129754E+00,+1.9832679E+00
+312.0000E-03,+2.0037293E+00,+1.9832679E+00
+312.5000E-03,+1.9805936E+00,+1.9832679E+00
+313.0000E-03,+1.9543826E+00,+1.9832679E+00
+313.5000E-03,+1.9475685E+00,+1.9845241E+00
+314.0000E-03,+1.9466037E+00,+1.9832679E+00
+314.5000E-03,+1.9465434E+00,+1.9832679E+00
+315.0000E-03,+1.9279303E+00,+1.9842729E+00
+315.5000E-03,+1.9147847E+00,+1.9832679E+00
+316.0000E-03,+1.9353675E+00,+1.9832679E+00
+316.5000E-03,+1.9710661E+00,+1.9832679E+00
+317.0000E-03,+1.9780609E+00,+1.9832679E+00
+317.5000E-03,+1.9648147E+00,+1.9832679E+00
+318.0000E-03,+2.0018398E+00,+1.9835694E+00
+318.5000E-03,+2.0140409E+00,+1.9844236E+00
+319.0000E-03,+2.0279705E+00,+1.9832679E+00
+319.5000E-03,+2.0509254E+00,+1.9832679E+00
+320.0000E-03,+2.0633072E+00,+1.9837704E+00
+320.5000E-03,+2.0383826E+00,+1.9838206E+00
+321.0000E-03,+2.0495585E+00,+1.9836196E+00
+321.5000E-03,+2.0654781E+00,+1.9834186E+00
+322.0000E-03,+2.0685333E+00,+1.9845241E+00
+322.5000E-03,+2.0851162E+00,+1.9845241E+00
+323.0000E-03,+2.0962720E+00,+1.9840719E+00
+323.5000E-03,+2.0853574E+00,+1.9838709E+00
+324.0000E-03,+2.0479101E+00,+1.9845241E+00
+324.5000E-03,+2.0324127E+00,+1.9834689E+00
+325.0000E-03,+2.0393876E+00,+1.9845241E+00
+325.5000E-03,+2.0127343E+00,+1.9845241E+00
+326.0000E-03,+2.0296590E+00,+1.9845241E+00
+326.5000E-03,+2.0602118E+00,+1.9845241E+00
+327.0000E-03,+2.0735182E+00,+1.9845241E+00
+327.5000E-03,+2.0008950E+00,+1.9847754E+00
+328.0000E-03,+1.9600106E+00,+1.9845241E+00
+328.5000E-03,+1.9385233E+00,+1.9846749E+00
+329.0000E-03,+1.9291162E+00,+1.9848759E+00
+329.5000E-03,+1.9424630E+00,+1.9845241E+00
+330.0000E-03,+1.9509454E+00,+1.9845241E+00
+330.5000E-03,+1.9317493E+00,+1.9854789E+00
+331.0000E-03,+1.8908650E+00,+1.9856799E+00
+331.5000E-03,+1.8368347E+00,+1.9845241E+00
+332.0000E-03,+1.7707242E+00,+1.9845241E+00
+332.5000E-03,+1.8242120E+00,+1.9837704E+00
+333.0000E-03,+1.9051968E+00,+1.9832679E+00
+333.5000E-03,+1.9513676E+00,+1.9832679E+00
+334.0000E-03,+1.9857796E+00,+1.9845241E+00
+334.5000E-03,+2.0024228E+00,+1.9845241E+00
+335.0000E-03,+1.9980810E+00,+1.9842729E+00
+335.5000E-03,+1.9737795E+00,+1.9845241E+00
+336.0000E-03,+1.9712671E+00,+1.9845241E+00
+336.5000E-03,+2.0083525E+00,+1.9841221E+00
+337.0000E-03,+2.0156288E+00,+1.9832679E+00
+337.5000E-03,+1.9836085E+00,+1.9845241E+00
+338.0000E-03,+1.9425233E+00,+1.9845241E+00
+338.5000E-03,+1.9521514E+00,+1.9845241E+00
+339.0000E-03,+1.9583624E+00,+1.9845241E+00
+339.5000E-03,+1.9523122E+00,+1.9832679E+00
+340.0000E-03,+1.9326539E+00,+1.9845241E+00
+340.5000E-03,+1.9304831E+00,+1.9844739E+00
+341.0000E-03,+1.9397896E+00,+1.9832679E+00
+341.5000E-03,+1.9509253E+00,+1.9832679E+00
+342.0000E-03,+1.9347042E+00,+1.9839714E+00
+342.5000E-03,+1.9100408E+00,+1.9832679E+00
+343.0000E-03,+1.8976591E+00,+1.9832679E+00
+343.5000E-03,+1.9136790E+00,+1.9832679E+00
+344.0000E-03,+1.9250359E+00,+1.9821121E+00
+344.5000E-03,+1.9260208E+00,+1.9829664E+00
+345.0000E-03,+1.9705435E+00,+1.9832679E+00
+345.5000E-03,+2.0200509E+00,+1.9832679E+00
+346.0000E-03,+2.0445735E+00,+1.9832679E+00
+346.5000E-03,+2.0417594E+00,+1.9834186E+00
+347.0000E-03,+2.0058397E+00,+1.9832679E+00
+347.5000E-03,+1.9823022E+00,+1.9835191E+00
+348.0000E-03,+1.9771967E+00,+1.9840719E+00
+348.5000E-03,+1.9745434E+00,+1.9832679E+00
+349.0000E-03,+1.9941615E+00,+1.9832679E+00
+349.5000E-03,+2.0032469E+00,+1.9832679E+00
+350.0000E-03,+2.0253173E+00,+1.9832679E+00
+350.5000E-03,+2.0293373E+00,+1.9834689E+00
+351.0000E-03,+2.0206539E+00,+1.9832679E+00
+351.5000E-03,+2.0228850E+00,+1.9832679E+00
+352.0000E-03,+2.0203725E+00,+1.9840719E+00
+352.5000E-03,+2.0298398E+00,+1.9835191E+00
+353.0000E-03,+2.0200710E+00,+1.9845241E+00
+353.5000E-03,+1.9982820E+00,+1.9832679E+00
+354.0000E-03,+1.9805936E+00,+1.9845241E+00
+354.5000E-03,+1.9842720E+00,+1.9832679E+00
+355.0000E-03,+1.9897393E+00,+1.9840216E+00
+355.5000E-03,+1.9830057E+00,+1.9832679E+00
+356.0000E-03,+1.9455584E+00,+1.9832679E+00
+356.5000E-03,+1.9251565E+00,+1.9832679E+00
+357.0000E-03,+1.9400711E+00,+1.9832679E+00
+357.5000E-03,+1.9422017E+00,+1.9845241E+00
+358.0000E-03,+1.9648148E+00,+1.9845241E+00
+358.5000E-03,+1.9953074E+00,+1.9832679E+00
+359.0000E-03,+2.0288751E+00,+1.9843734E+00
+359.5000E-03,+2.0274279E+00,+1.9844739E+00
+360.0000E-03,+2.0453173E+00,+1.9832679E+00
+360.5000E-03,+2.0661616E+00,+1.9840719E+00
+361.0000E-03,+2.0620208E+00,+1.9845241E+00
+361.5000E-03,+2.0331765E+00,+1.9845241E+00
+362.0000E-03,+2.0291966E+00,+1.9845241E+00
+362.5000E-03,+2.0398902E+00,+1.9845242E+00
+363.0000E-03,+2.0243323E+00,+1.9834689E+00
+363.5000E-03,+2.0189052E+00,+1.9845241E+00
+364.0000E-03,+2.0342419E+00,+1.9845241E+00
+364.5000E-03,+2.0501213E+00,+1.9845241E+00
+365.0000E-03,+2.0290358E+00,+1.9845241E+00
+365.5000E-03,+1.9702215E+00,+1.9833181E+00
+366.0000E-03,+1.8452366E+00,+1.9832679E+00
+366.5000E-03,+1.7447744E+00,+1.9841724E+00
+367.0000E-03,+1.7824430E+00,+1.9845241E+00
+367.5000E-03,+1.8475284E+00,+1.9832679E+00
+368.0000E-03,+1.9115886E+00,+1.9829664E+00
+368.5000E-03,+1.9144630E+00,+1.9832679E+00
+369.0000E-03,+1.9394279E+00,+1.9832679E+00
+369.5000E-03,+1.9613374E+00,+1.9832679E+00
+370.0000E-03,+1.9746640E+00,+1.9832679E+00
+370.5000E-03,+1.9828248E+00,+1.9832679E+00
+371.0000E-03,+1.9947846E+00,+1.9841724E+00
+371.5000E-03,+2.0034078E+00,+1.9832679E+00
+372.0000E-03,+2.0151263E+00,+1.9832679E+00
+372.5000E-03,+2.0203926E+00,+1.9832679E+00
+373.0000E-03,+2.0102016E+00,+1.9832679E+00
+373.5000E-03,+2.0017996E+00,+1.9832679E+00
+374.0000E-03,+2.0003524E+00,+1.9832679E+00
+374.5000E-03,+2.0046540E+00,+1.9832679E+00
+375.0000E-03,+2.0062218E+00,+1.9832679E+00
+375.5000E-03,+2.0082318E+00,+1.9832679E+00
+376.0000E-03,+2.0063423E+00,+1.9832679E+00
+376.5000E-03,+1.9906439E+00,+1.9838709E+00
+377.0000E-03,+1.9756288E+00,+1.9832679E+00
+377.5000E-03,+1.9335585E+00,+1.9832679E+00
+378.0000E-03,+1.9170559E+00,+1.9844739E+00
+378.5000E-03,+1.9043122E+00,+1.9821623E+00
+379.0000E-03,+1.9130760E+00,+1.9832679E+00
+379.5000E-03,+1.9139807E+00,+1.9827151E+00
+380.0000E-03,+1.9279303E+00,+1.9820116E+00
+380.5000E-03,+1.9171563E+00,+1.9832679E+00
+381.0000E-03,+1.9052369E+00,+1.9832679E+00
+381.5000E-03,+1.9211967E+00,+1.9844237E+00
+382.0000E-03,+1.9422419E+00,+1.9832679E+00
+382.5000E-03,+1.9949656E+00,+1.9832679E+00
+383.0000E-03,+2.0665838E+00,+1.9832679E+00
+383.5000E-03,+2.1121313E+00,+1.9832679E+00
+384.0000E-03,+2.0905433E+00,+1.9832679E+00
+384.5000E-03,+2.0780610E+00,+1.9832679E+00
+385.0000E-03,+2.0800911E+00,+1.9832679E+00
+385.5000E-03,+2.0845333E+00,+1.9840719E+00
+386.0000E-03,+2.0916690E+00,+1.9838709E+00
+386.5000E-03,+2.0931966E+00,+1.9845241E+00
+387.0000E-03,+2.0804327E+00,+1.9834689E+00
+387.5000E-03,+2.0444127E+00,+1.9832679E+00
+388.0000E-03,+2.0324931E+00,+1.9834689E+00
+388.5000E-03,+2.0195685E+00,+1.9853784E+00
+389.0000E-03,+1.9996087E+00,+1.9838709E+00
+389.5000E-03,+1.9796087E+00,+1.9845241E+00
+390.0000E-03,+1.9578801E+00,+1.9842729E+00
+390.5000E-03,+1.9536389E+00,+1.9845241E+00
+391.0000E-03,+1.9467444E+00,+1.9845241E+00
+391.5000E-03,+1.9587646E+00,+1.9832679E+00
+392.0000E-03,+1.9756690E+00,+1.9845241E+00
+392.5000E-03,+1.9650157E+00,+1.9845241E+00
+393.0000E-03,+1.9461816E+00,+1.9845241E+00
+393.5000E-03,+1.9335184E+00,+1.9833684E+00
+394.0000E-03,+1.9388448E+00,+1.9845241E+00
+394.5000E-03,+1.9304227E+00,+1.9832679E+00
+395.0000E-03,+1.9199906E+00,+1.9837704E+00
+395.5000E-03,+1.9151464E+00,+1.9832679E+00
+396.0000E-03,+1.9240710E+00,+1.9832679E+00
+396.5000E-03,+1.9515283E+00,+1.9832679E+00
+397.0000E-03,+1.9621012E+00,+1.9833181E+00
+397.5000E-03,+2.0312471E+00,+1.9835191E+00
+398.0000E-03,+2.0790259E+00,+1.9845241E+00
+398.5000E-03,+2.0935585E+00,+1.9832679E+00
+399.0000E-03,+2.0681715E+00,+1.9836699E+00
+399.5000E-03,+2.0615182E+00,+1.9845241E+00
+400.0000E-03,+2.0278298E+00,+1.9832679E+00
+400.5000E-03,+2.0060810E+00,+1.9845241E+00
+401.0000E-03,+1.9751262E+00,+1.9836699E+00
+401.5000E-03,+1.9620409E+00,+1.9845241E+00
+402.0000E-03,+1.9594881E+00,+1.9845241E+00
+402.5000E-03,+1.9627043E+00,+1.9845241E+00
+403.0000E-03,+1.9718098E+00,+1.9833181E+00
+403.5000E-03,+2.0030058E+00,+1.9845241E+00
+404.0000E-03,+1.9917896E+00,+1.9841724E+00
+404.5000E-03,+2.0174580E+00,+1.9845241E+00
+405.0000E-03,+2.0440107E+00,+1.9837704E+00
+405.5000E-03,+2.0504027E+00,+1.9845241E+00
+406.0000E-03,+2.0457192E+00,+1.9845241E+00
+406.5000E-03,+2.0393474E+00,+1.9845241E+00
+407.0000E-03,+2.0249956E+00,+1.9845241E+00
+407.5000E-03,+2.0309454E+00,+1.9852779E+00
+408.0000E-03,+2.0495183E+00,+1.9845241E+00
+408.5000E-03,+2.0577595E+00,+1.9845241E+00
+409.0000E-03,+2.0545836E+00,+1.9845241E+00
+409.5000E-03,+2.0403724E+00,+1.9845241E+00
+410.0000E-03,+1.9816990E+00,+1.9845241E+00
+410.5000E-03,+1.9019804E+00,+1.9845241E+00
+411.0000E-03,+1.8398298E+00,+1.9845241E+00
+411.5000E-03,+1.8477696E+00,+1.9845241E+00
+412.0000E-03,+1.8859002E+00,+1.9845241E+00
+412.5000E-03,+1.9273274E+00,+1.9832679E+00
+413.0000E-03,+1.9512268E+00,+1.9832679E+00
+413.5000E-03,+1.9573172E+00,+1.9836699E+00
+414.0000E-03,+1.9418599E+00,+1.9845241E+00
+414.5000E-03,+1.9392670E+00,+1.9837201E+00
+415.0000E-03,+1.9358700E+00,+1.9842729E+00
+415.5000E-03,+1.9327544E+00,+1.9833181E+00
+416.0000E-03,+1.9353876E+00,+1.9832679E+00
+416.5000E-03,+1.9564530E+00,+1.9836196E+00
+417.0000E-03,+1.9842520E+00,+1.9838206E+00
+417.5000E-03,+1.9566740E+00,+1.9832679E+00
+418.0000E-03,+1.9662620E+00,+1.9832679E+00
+418.5000E-03,+1.9767343E+00,+1.9832679E+00
+419.0000E-03,+1.9832870E+00,+1.9832679E+00
+419.5000E-03,+1.9723525E+00,+1.9832679E+00
+420.0000E-03,+1.9685333E+00,+1.9840216E+00
+420.5000E-03,+1.9700811E+00,+1.9845241E+00
+421.0000E-03,+1.9638901E+00,+1.9845241E+00
+421.5000E-03,+1.9752067E+00,+1.9832679E+00
+422.0000E-03,+1.9697393E+00,+1.9845241E+00
+422.5000E-03,+1.9747645E+00,+1.9832679E+00
+423.0000E-03,+1.9941012E+00,+1.9845241E+00
+423.5000E-03,+2.0071665E+00,+1.9838709E+00
+424.0000E-03,+1.9900408E+00,+1.9836699E+00
+424.5000E-03,+1.9614378E+00,+1.9845241E+00
+425.0000E-03,+1.9720509E+00,+1.9845241E+00
+425.5000E-03,+1.9772570E+00,+1.9855794E+00
+426.0000E-03,+1.9857997E+00,+1.9845241E+00
+426.5000E-03,+1.9815785E+00,+1.9845241E+00
+427.0000E-03,+1.9778599E+00,+1.9845241E+00
+427.5000E-03,+1.9692369E+00,+1.9845241E+00
+428.0000E-03,+1.9739805E+00,+1.9844739E+00
+428.5000E-03,+1.9681313E+00,+1.9843734E+00
+429.0000E-03,+1.9590659E+00,+1.9832679E+00
+429.5000E-03,+1.9405334E+00,+1.9832679E+00
+430.0000E-03,+1.9399906E+00,+1.9837704E+00
+430.5000E-03,+1.9529554E+00,+1.9845241E+00
+431.0000E-03,+1.9619002E+00,+1.9833684E+00
+431.5000E-03,+1.9595685E+00,+1.9844237E+00
+432.0000E-03,+1.9628650E+00,+1.9832679E+00
+432.5000E-03,+1.9466237E+00,+1.9832679E+00
+433.0000E-03,+1.9482117E+00,+1.9832679E+00
+433.5000E-03,+1.9621414E+00,+1.9836196E+00
+434.0000E-03,+1.9764128E+00,+1.9845241E+00
+434.5000E-03,+1.9964731E+00,+1.9844739E+00
+435.0000E-03,+2.0127545E+00,+1.9845241E+00
+435.5000E-03,+2.0008549E+00,+1.9840719E+00
+436.0000E-03,+1.9919504E+00,+1.9845241E+00
+436.5000E-03,+1.9853775E+00,+1.9836699E+00
+437.0000E-03,+1.9912669E+00,+1.9845241E+00
+437.5000E-03,+2.0067244E+00,+1.9845241E+00
+438.0000E-03,+2.0284931E+00,+1.9845241E+00
+438.5000E-03,+2.0285534E+00,+1.9845241E+00
+439.0000E-03,+2.0118901E+00,+1.9845241E+00
+439.5000E-03,+1.9847142E+00,+1.9849764E+00
+440.0000E-03,+1.9680307E+00,+1.9835191E+00
+440.5000E-03,+1.9724128E+00,+1.9844739E+00
+441.0000E-03,+1.9901414E+00,+1.9845241E+00
+441.5000E-03,+2.0104430E+00,+1.9836196E+00
+442.0000E-03,+1.9895182E+00,+1.9845241E+00
+442.5000E-03,+1.9560709E+00,+1.9845241E+00
+443.0000E-03,+1.9428449E+00,+1.9845241E+00
+443.5000E-03,+1.9629052E+00,+1.9844236E+00
+444.0000E-03,+1.9779605E+00,+1.9845241E+00
+444.5000E-03,+2.0026439E+00,+1.9845241E+00
+445.0000E-03,+2.0234077E+00,+1.9845241E+00
+445.5000E-03,+2.0210760E+00,+1.9845241E+00
+446.0000E-03,+2.0035282E+00,+1.9845241E+00
+446.5000E-03,+1.9700409E+00,+1.9845241E+00
+447.0000E-03,+1.9663223E+00,+1.9845241E+00
+447.5000E-03,+1.9685333E+00,+1.9842729E+00
+448.0000E-03,+2.0031465E+00,+1.9845241E+00
+448.5000E-03,+2.0328750E+00,+1.9845241E+00
+449.0000E-03,+2.0251765E+00,+1.9836699E+00
+449.5000E-03,+2.0115685E+00,+1.9845241E+00
+450.0000E-03,+2.0022016E+00,+1.9845241E+00
+450.5000E-03,+2.0064831E+00,+1.9845241E+00
+451.0000E-03,+1.9907243E+00,+1.9849261E+00
+451.5000E-03,+1.9971765E+00,+1.9851774E+00
+452.0000E-03,+1.9992268E+00,+1.9845241E+00
+452.5000E-03,+1.9942620E+00,+1.9845241E+00
+453.0000E-03,+1.9889153E+00,+1.9845241E+00
+453.5000E-03,+2.0026841E+00,+1.9856297E+00
+454.0000E-03,+2.0202318E+00,+1.9854287E+00
+454.5000E-03,+2.0211564E+00,+1.9857804E+00
+455.0000E-03,+2.0241112E+00,+1.9852779E+00
+455.5000E-03,+2.0136388E+00,+1.9854789E+00
+456.0000E-03,+2.0328348E+00,+1.9845241E+00
+456.5000E-03,+2.0394479E+00,+1.9845241E+00
+457.0000E-03,+2.0405936E+00,+1.9848256E+00
+457.5000E-03,+2.0306439E+00,+1.9857804E+00
+458.0000E-03,+2.0079102E+00,+1.9857804E+00
+458.5000E-03,+1.9773572E+00,+1.9857804E+00
+459.0000E-03,+1.9166739E+00,+1.9857804E+00
+459.5000E-03,+1.8485332E+00,+1.9845744E+00
+460.0000E-03,+1.8444128E+00,+1.9845241E+00
+460.5000E-03,+1.8592670E+00,+1.9845241E+00
+461.0000E-03,+1.8838098E+00,+1.9845241E+00
+461.5000E-03,+1.9115282E+00,+1.9845241E+00
+462.0000E-03,+1.9181614E+00,+1.9845241E+00
+462.5000E-03,+1.9077293E+00,+1.9832679E+00
+463.0000E-03,+1.9103223E+00,+1.9832679E+00
+463.5000E-03,+1.9274279E+00,+1.9832679E+00
+464.0000E-03,+1.9606942E+00,+1.9839211E+00
+464.5000E-03,+1.9714680E+00,+1.9837201E+00
+465.0000E-03,+1.9529554E+00,+1.9842729E+00
+465.5000E-03,+1.9521716E+00,+1.9833181E+00
+466.0000E-03,+1.9692972E+00,+1.9845241E+00
+466.5000E-03,+1.9910661E+00,+1.9845241E+00
+467.0000E-03,+2.0113675E+00,+1.9845241E+00
+467.5000E-03,+2.0175785E+00,+1.9845241E+00
+468.0000E-03,+2.0228046E+00,+1.9845241E+00
+468.5000E-03,+2.0038098E+00,+1.9832679E+00
+469.0000E-03,+2.0417395E+00,+1.9844237E+00
+469.5000E-03,+2.0779403E+00,+1.9835694E+00
+470.0000E-03,+2.0820007E+00,+1.9840216E+00
+470.5000E-03,+2.0629655E+00,+1.9845241E+00
+471.0000E-03,+2.0553474E+00,+1.9845241E+00
+471.5000E-03,+2.0231262E+00,+1.9846749E+00
+472.0000E-03,+1.9766739E+00,+1.9845241E+00
+472.5000E-03,+1.9473272E+00,+1.9845241E+00
+473.0000E-03,+1.9631866E+00,+1.9845241E+00
+473.5000E-03,+1.9428649E+00,+1.9845241E+00
+474.0000E-03,+1.9279102E+00,+1.9845241E+00
+474.5000E-03,+1.9455986E+00,+1.9834689E+00
+475.0000E-03,+1.9383826E+00,+1.9845241E+00
+475.5000E-03,+1.9368148E+00,+1.9845241E+00
+476.0000E-03,+1.9425031E+00,+1.9832679E+00
+476.5000E-03,+1.9460408E+00,+1.9839211E+00
+477.0000E-03,+1.9516489E+00,+1.9845241E+00
+477.5000E-03,+1.9448148E+00,+1.9842729E+00
+478.0000E-03,+1.9671263E+00,+1.9845241E+00
+478.5000E-03,+1.9800510E+00,+1.9845241E+00
+479.0000E-03,+1.9751263E+00,+1.9845241E+00
+479.5000E-03,+1.9800308E+00,+1.9845241E+00
+480.0000E-03,+1.9905434E+00,+1.9845241E+00
+480.5000E-03,+2.0053173E+00,+1.9832679E+00
+481.0000E-03,+2.0014378E+00,+1.9845241E+00
+481.5000E-03,+1.9633875E+00,+1.9833684E+00
+482.0000E-03,+1.9447545E+00,+1.9842227E+00
+482.5000E-03,+1.9392870E+00,+1.9837704E+00
+483.0000E-03,+1.9324328E+00,+1.9832679E+00
+483.5000E-03,+1.9700811E+00,+1.9841724E+00
+484.0000E-03,+2.0154479E+00,+1.9845241E+00
+484.5000E-03,+2.0165535E+00,+1.9832679E+00
+485.0000E-03,+2.0353675E+00,+1.9845241E+00
+485.5000E-03,+2.0411364E+00,+1.9840719E+00
+486.0000E-03,+2.0183223E+00,+1.9845241E+00
+486.5000E-03,+2.0292168E+00,+1.9845241E+00
+487.0000E-03,+2.0487142E+00,+1.9845241E+00
+487.5000E-03,+2.0625033E+00,+1.9845241E+00
+488.0000E-03,+2.0976992E+00,+1.9845241E+00
+488.5000E-03,+2.1020810E+00,+1.9845241E+00
+489.0000E-03,+2.0899404E+00,+1.9845241E+00
+489.5000E-03,+2.0852971E+00,+1.9853282E+00
+490.0000E-03,+2.0657191E+00,+1.9855292E+00
+490.5000E-03,+1.9959704E+00,+1.9845241E+00
+491.0000E-03,+1.9529956E+00,+1.9845241E+00
+491.5000E-03,+1.9275887E+00,+1.9845241E+00
+492.0000E-03,+1.9196690E+00,+1.9850769E+00
+492.5000E-03,+1.9053173E+00,+1.9845241E+00
+493.0000E-03,+1.9291364E+00,+1.9842226E+00
+493.5000E-03,+1.9722721E+00,+1.9845241E+00
+494.0000E-03,+1.9984831E+00,+1.9845241E+00
+494.5000E-03,+1.9840710E+00,+1.9845241E+00
+495.0000E-03,+1.9772770E+00,+1.9845241E+00
+495.5000E-03,+1.9611966E+00,+1.9845241E+00
+496.0000E-03,+1.9417595E+00,+1.9845241E+00
+496.5000E-03,+1.9480108E+00,+1.9845241E+00
+497.0000E-03,+1.9956490E+00,+1.9845241E+00
+497.5000E-03,+2.0160711E+00,+1.9845241E+00
+498.0000E-03,+2.0263424E+00,+1.9840719E+00
+498.5000E-03,+2.0137595E+00,+1.9845241E+00
+499.0000E-03,+2.0006740E+00,+1.9853784E+00
+499.5000E-03,+1.9798900E+00,+1.9855794E+00
+500.0000E-03,+1.9725535E+00,+1.9857804E+00
+500.5000E-03,+1.9997294E+00,+1.9845241E+00
+501.0000E-03,+1.9840710E+00,+1.9836699E+00
+501.5000E-03,+1.9401312E+00,+1.9845241E+00
+502.0000E-03,+1.9330962E+00,+1.9840719E+00
+502.5000E-03,+1.9851164E+00,+1.9845241E+00
+503.0000E-03,+2.0249957E+00,+1.9845241E+00
+503.5000E-03,+2.0188249E+00,+1.9845241E+00
+504.0000E-03,+1.9957694E+00,+1.9848759E+00
+504.5000E-03,+1.9423623E+00,+1.9850769E+00
+505.0000E-03,+1.8779804E+00,+1.9845241E+00
+505.5000E-03,+1.8334378E+00,+1.9845241E+00
+506.0000E-03,+1.8544429E+00,+1.9846247E+00
+506.5000E-03,+1.8800108E+00,+1.9845241E+00
+507.0000E-03,+1.9040509E+00,+1.9845241E+00
+507.5000E-03,+1.8964729E+00,+1.9845241E+00
+508.0000E-03,+1.9111665E+00,+1.9838206E+00
+508.5000E-03,+1.9285133E+00,+1.9832679E+00
+509.0000E-03,+1.9535986E+00,+1.9845241E+00
+509.5000E-03,+1.9687344E+00,+1.9833181E+00
+510.0000E-03,+1.9703424E+00,+1.9832679E+00
+510.5000E-03,+1.9677896E+00,+1.9832679E+00
+511.0000E-03,+1.9654379E+00,+1.9832679E+00
+511.5000E-03,+1.9739805E+00,+1.9832679E+00
+512.0000E-03,+1.9729152E+00,+1.9832679E+00
+512.5000E-03,+1.9710459E+00,+1.9845241E+00
+513.0000E-03,+1.9618800E+00,+1.9834689E+00
+513.5000E-03,+1.9670057E+00,+1.9841222E+00
+514.0000E-03,+1.9613976E+00,+1.9832679E+00
+514.5000E-03,+1.9499805E+00,+1.9845241E+00
+515.0000E-03,+1.9402921E+00,+1.9835191E+00
+515.5000E-03,+1.9566138E+00,+1.9844739E+00
+516.0000E-03,+1.9613774E+00,+1.9834186E+00
+516.5000E-03,+1.9488951E+00,+1.9832679E+00
+517.0000E-03,+1.9382218E+00,+1.9838206E+00
+517.5000E-03,+1.9494378E+00,+1.9840216E+00
+518.0000E-03,+1.9509855E+00,+1.9832679E+00
+518.5000E-03,+1.9532972E+00,+1.9832679E+00
+519.0000E-03,+1.9729353E+00,+1.9844237E+00
+519.5000E-03,+1.9961314E+00,+1.9835694E+00
+520.0000E-03,+2.0109453E+00,+1.9832679E+00
+520.5000E-03,+2.0097795E+00,+1.9845241E+00
+521.0000E-03,+2.0108448E+00,+1.9845241E+00
+521.5000E-03,+1.9989654E+00,+1.9832679E+00
+522.0000E-03,+1.9809353E+00,+1.9845241E+00
+522.5000E-03,+1.9768751E+00,+1.9845241E+00
+523.0000E-03,+2.0046540E+00,+1.9845241E+00
+523.5000E-03,+2.0061413E+00,+1.9845241E+00
+524.0000E-03,+1.9988247E+00,+1.9832679E+00
+524.5000E-03,+1.9666036E+00,+1.9845241E+00
+525.0000E-03,+1.9494378E+00,+1.9832679E+00
+525.5000E-03,+1.9465233E+00,+1.9832679E+00
+526.0000E-03,+1.9513474E+00,+1.9832679E+00
+526.5000E-03,+1.9560711E+00,+1.9838709E+00
+527.0000E-03,+1.9500811E+00,+1.9832679E+00
+527.5000E-03,+1.9584831E+00,+1.9832679E+00
+528.0000E-03,+1.9670057E+00,+1.9832679E+00
+528.5000E-03,+1.9783022E+00,+1.9832679E+00
+529.0000E-03,+1.9820207E+00,+1.9832679E+00
+529.5000E-03,+1.9905836E+00,+1.9832679E+00
+530.0000E-03,+1.9718499E+00,+1.9840216E+00
+530.5000E-03,+1.9626840E+00,+1.9832679E+00
+531.0000E-03,+1.9543023E+00,+1.9833684E+00
+531.5000E-03,+1.9502619E+00,+1.9845241E+00
+532.0000E-03,+1.9562318E+00,+1.9829664E+00
+532.5000E-03,+1.9575786E+00,+1.9840216E+00
+533.0000E-03,+1.9468047E+00,+1.9832679E+00
+533.5000E-03,+1.9383423E+00,+1.9832679E+00
+534.0000E-03,+1.9265434E+00,+1.9843734E+00
+534.5000E-03,+1.9440912E+00,+1.9832679E+00
+535.0000E-03,+1.9729555E+00,+1.9832679E+00
+535.5000E-03,+2.0020409E+00,+1.9832679E+00
+536.0000E-03,+2.0350057E+00,+1.9845241E+00
+536.5000E-03,+2.0535987E+00,+1.9841221E+00
+537.0000E-03,+2.0550660E+00,+1.9832679E+00
+537.5000E-03,+2.0434077E+00,+1.9832679E+00
+538.0000E-03,+2.0188850E+00,+1.9834689E+00
+538.5000E-03,+2.0045937E+00,+1.9832679E+00
+539.0000E-03,+2.0096389E+00,+1.9838709E+00
+539.5000E-03,+2.0322922E+00,+1.9845241E+00
+540.0000E-03,+2.0409956E+00,+1.9845241E+00
+540.5000E-03,+2.0250760E+00,+1.9844739E+00
+541.0000E-03,+2.0206740E+00,+1.9845241E+00
+541.5000E-03,+1.9686136E+00,+1.9845241E+00
+542.0000E-03,+1.8880306E+00,+1.9839714E+00
+542.5000E-03,+1.8377796E+00,+1.9832679E+00
+543.0000E-03,+1.8797697E+00,+1.9842226E+00
+543.5000E-03,+1.9232269E+00,+1.9844236E+00
+544.0000E-03,+1.9437092E+00,+1.9832679E+00
+544.5000E-03,+1.9378398E+00,+1.9832679E+00
+545.0000E-03,+1.9603927E+00,+1.9832679E+00
+545.5000E-03,+1.9741615E+00,+1.9832679E+00
+546.0000E-03,+1.9640107E+00,+1.9832679E+00
+546.5000E-03,+1.9663223E+00,+1.9843734E+00
+547.0000E-03,+1.9763324E+00,+1.9832679E+00
+547.5000E-03,+1.9783826E+00,+1.9835191E+00
+548.0000E-03,+1.9816590E+00,+1.9845241E+00
+548.5000E-03,+1.9802921E+00,+1.9832679E+00
+549.0000E-03,+1.9587443E+00,+1.9832679E+00
+549.5000E-03,+1.9234679E+00,+1.9832679E+00
+550.0000E-03,+1.9117496E+00,+1.9832679E+00
+550.5000E-03,+1.9555686E+00,+1.9832679E+00
+551.0000E-03,+1.9708449E+00,+1.9832679E+00
+551.5000E-03,+1.9864228E+00,+1.9845241E+00
+552.0000E-03,+1.9900007E+00,+1.9832679E+00
+552.5000E-03,+1.9873273E+00,+1.9830166E+00
+553.0000E-03,+1.9846941E+00,+1.9832679E+00
+553.5000E-03,+1.9859605E+00,+1.9832679E+00
+554.0000E-03,+1.9725534E+00,+1.9836196E+00
+554.5000E-03,+1.9616389E+00,+1.9838206E+00
+555.0000E-03,+1.9525534E+00,+1.9832679E+00
+555.5000E-03,+1.9465835E+00,+1.9832679E+00
+556.0000E-03,+1.9639907E+00,+1.9844236E+00
+556.5000E-03,+1.9771364E+00,+1.9832679E+00
+557.0000E-03,+1.9610961E+00,+1.9832679E+00
+557.5000E-03,+1.9349654E+00,+1.9832679E+00
+558.0000E-03,+1.9127344E+00,+1.9832679E+00
+558.5000E-03,+1.9134580E+00,+1.9832679E+00
+559.0000E-03,+1.9138198E+00,+1.9832679E+00
+559.5000E-03,+1.9342219E+00,+1.9832679E+00
+560.0000E-03,+1.9675284E+00,+1.9822628E+00
+560.5000E-03,+1.9969756E+00,+1.9832679E+00
+561.0000E-03,+1.9931163E+00,+1.9826648E+00
+561.5000E-03,+1.9755484E+00,+1.9824136E+00
+562.0000E-03,+1.9910258E+00,+1.9822126E+00
+562.5000E-03,+2.0328550E+00,+1.9845241E+00
+563.0000E-03,+2.0570962E+00,+1.9820116E+00
+563.5000E-03,+2.0710459E+00,+1.9832679E+00
+564.0000E-03,+2.0755082E+00,+1.9832679E+00
+564.5000E-03,+2.0633071E+00,+1.9832679E+00
+565.0000E-03,+2.0407946E+00,+1.9832679E+00
+565.5000E-03,+2.0125132E+00,+1.9844739E+00
+566.0000E-03,+1.9952268E+00,+1.9832679E+00
+566.5000E-03,+1.9833876E+00,+1.9841724E+00
+567.0000E-03,+1.9626035E+00,+1.9832679E+00
+567.5000E-03,+1.9194880E+00,+1.9832679E+00
+568.0000E-03,+1.8947443E+00,+1.9832679E+00
+568.5000E-03,+1.9198500E+00,+1.9820116E+00
+569.0000E-03,+1.9305032E+00,+1.9821121E+00
+569.5000E-03,+1.9505234E+00,+1.9823131E+00
+570.0000E-03,+1.9605937E+00,+1.9832679E+00
+570.5000E-03,+1.9642520E+00,+1.9832679E+00
+571.0000E-03,+1.9688550E+00,+1.9832679E+00
+571.5000E-03,+1.9596690E+00,+1.9832679E+00
+572.0000E-03,+1.9608950E+00,+1.9832679E+00
+572.5000E-03,+1.9988852E+00,+1.9832679E+00
+573.0000E-03,+2.0116689E+00,+1.9832679E+00
+573.5000E-03,+1.9788851E+00,+1.9832679E+00
+574.0000E-03,+1.9457595E+00,+1.9836699E+00
+574.5000E-03,+1.9259604E+00,+1.9830669E+00
+575.0000E-03,+1.9037092E+00,+1.9820116E+00
+575.5000E-03,+1.9099404E+00,+1.9832679E+00
+576.0000E-03,+1.9253575E+00,+1.9841222E+00
+576.5000E-03,+1.9377595E+00,+1.9832679E+00
+577.0000E-03,+1.9392871E+00,+1.9824639E+00
+577.5000E-03,+1.9562721E+00,+1.9830166E+00
+578.0000E-03,+1.9553274E+00,+1.9832679E+00
+578.5000E-03,+1.9667042E+00,+1.9832679E+00
+579.0000E-03,+1.9723524E+00,+1.9832679E+00
+579.5000E-03,+1.9817193E+00,+1.9832679E+00
+580.0000E-03,+1.9635081E+00,+1.9832679E+00
+580.5000E-03,+1.9665233E+00,+1.9832679E+00
+581.0000E-03,+1.9603121E+00,+1.9832679E+00
+581.5000E-03,+1.9414177E+00,+1.9831674E+00
+582.0000E-03,+1.9276891E+00,+1.9820116E+00
+582.5000E-03,+1.9320510E+00,+1.9832679E+00
+583.0000E-03,+1.9395686E+00,+1.9838206E+00
+583.5000E-03,+1.9360107E+00,+1.9832679E+00
+584.0000E-03,+1.9293775E+00,+1.9831171E+00
+584.5000E-03,+1.9092167E+00,+1.9832679E+00
+585.0000E-03,+1.9138600E+00,+1.9820116E+00
+585.5000E-03,+1.9347042E+00,+1.9828156E+00
+586.0000E-03,+1.9477494E+00,+1.9820116E+00
+586.5000E-03,+1.9259001E+00,+1.9820116E+00
+587.0000E-03,+1.9124127E+00,+1.9820116E+00
+587.5000E-03,+1.9278298E+00,+1.9820116E+00
+588.0000E-03,+1.9394881E+00,+1.9820116E+00
+588.5000E-03,+1.9738401E+00,+1.9828659E+00
+589.0000E-03,+2.0046138E+00,+1.9826146E+00
+589.5000E-03,+2.0273072E+00,+1.9820116E+00
+590.0000E-03,+2.0356690E+00,+1.9822629E+00
+590.5000E-03,+2.0306440E+00,+1.9832176E+00
+591.0000E-03,+2.0429856E+00,+1.9820116E+00
+591.5000E-03,+2.0768148E+00,+1.9820116E+00
+592.0000E-03,+2.0738397E+00,+1.9827151E+00
+592.5000E-03,+2.0473272E+00,+1.9820116E+00
+593.0000E-03,+2.0404729E+00,+1.9832679E+00
+593.5000E-03,+2.0306038E+00,+1.9832679E+00
+594.0000E-03,+2.0469052E+00,+1.9832679E+00
+594.5000E-03,+2.0690560E+00,+1.9832679E+00
+595.0000E-03,+2.0685332E+00,+1.9832679E+00
+595.5000E-03,+2.0552870E+00,+1.9827151E+00
+596.0000E-03,+2.0420207E+00,+1.9832679E+00
+596.5000E-03,+2.0276891E+00,+1.9845241E+00
+597.0000E-03,+2.0506239E+00,+1.9832679E+00
+597.5000E-03,+2.0675283E+00,+1.9845241E+00
+598.0000E-03,+2.0523122E+00,+1.9832679E+00
+598.5000E-03,+2.0376991E+00,+1.9832679E+00
+599.0000E-03,+2.0320509E+00,+1.9832679E+00
+599.5000E-03,+1.9896588E+00,+1.9843231E+00
+600.0000E-03,+1.9072267E+00,+1.9845241E+00
+600.5000E-03,+1.8778800E+00,+1.9832679E+00
+601.0000E-03,+1.9104028E+00,+1.9841222E+00
+601.5000E-03,+1.9351866E+00,+1.9832679E+00
+602.0000E-03,+1.9311865E+00,+1.9837201E+00
+602.5000E-03,+1.8912468E+00,+1.9832679E+00
+603.0000E-03,+1.8952470E+00,+1.9833181E+00
+603.5000E-03,+1.8989253E+00,+1.9832679E+00
+604.0000E-03,+1.9151666E+00,+1.9832679E+00
+604.5000E-03,+1.9541818E+00,+1.9820116E+00
+605.0000E-03,+2.0168751E+00,+1.9832679E+00
+605.5000E-03,+2.0389254E+00,+1.9832679E+00
+606.0000E-03,+2.0639705E+00,+1.9845241E+00
+606.5000E-03,+2.0464026E+00,+1.9844237E+00
+607.0000E-03,+2.0364931E+00,+1.9832679E+00
+607.5000E-03,+1.9919503E+00,+1.9845241E+00
+608.0000E-03,+1.9116286E+00,+1.9832679E+00
+608.5000E-03,+1.8408951E+00,+1.9832679E+00
+609.0000E-03,+1.8559103E+00,+1.9832679E+00
+609.5000E-03,+1.8818600E+00,+1.9832679E+00
+610.0000E-03,+1.9141615E+00,+1.9832679E+00
+610.5000E-03,+1.9249554E+00,+1.9828156E+00
+611.0000E-03,+1.9289555E+00,+1.9832679E+00
+611.5000E-03,+1.9319102E+00,+1.9832679E+00
+612.0000E-03,+1.9326137E+00,+1.9830669E+00
+612.5000E-03,+1.9484329E+00,+1.9820116E+00
+613.0000E-03,+1.9601917E+00,+1.9820116E+00
+613.5000E-03,+1.9516890E+00,+1.9820116E+00
+614.0000E-03,+1.9547244E+00,+1.9826146E+00
+614.5000E-03,+2.0023223E+00,+1.9828156E+00
+615.0000E-03,+1.9910458E+00,+1.9832679E+00
+615.5000E-03,+1.9697192E+00,+1.9832679E+00
+616.0000E-03,+1.9501212E+00,+1.9820116E+00
+616.5000E-03,+1.9541414E+00,+1.9829161E+00
+617.0000E-03,+1.9790661E+00,+1.9832679E+00
+617.5000E-03,+1.9844128E+00,+1.9820116E+00
+618.0000E-03,+1.9868650E+00,+1.9807553E+00
+618.5000E-03,+1.9691162E+00,+1.9820116E+00
+619.0000E-03,+1.9651565E+00,+1.9820116E+00
+619.5000E-03,+1.9673876E+00,+1.9817101E+00
+620.0000E-03,+1.9650157E+00,+1.9820116E+00
+620.5000E-03,+1.9399905E+00,+1.9820116E+00
+621.0000E-03,+1.9426841E+00,+1.9820116E+00
+621.5000E-03,+1.9689956E+00,+1.9809061E+00
+622.0000E-03,+1.9639906E+00,+1.9820116E+00
+622.5000E-03,+1.9743625E+00,+1.9820116E+00
+623.0000E-03,+1.9901213E+00,+1.9820116E+00
+623.5000E-03,+1.9877293E+00,+1.9813583E+00
+624.0000E-03,+1.9671262E+00,+1.9820116E+00
+624.5000E-03,+1.9759505E+00,+1.9832679E+00
+625.0000E-03,+1.9931563E+00,+1.9820116E+00
+625.5000E-03,+1.9857997E+00,+1.9822126E+00
+626.0000E-03,+1.9935585E+00,+1.9820116E+00
+626.5000E-03,+2.0029856E+00,+1.9826146E+00
+627.0000E-03,+2.0109253E+00,+1.9824639E+00
+627.5000E-03,+2.0342620E+00,+1.9820116E+00
+628.0000E-03,+2.0481113E+00,+1.9832679E+00
+628.5000E-03,+2.0565735E+00,+1.9832679E+00
+629.0000E-03,+2.0373976E+00,+1.9829161E+00
+629.5000E-03,+2.0152670E+00,+1.9832679E+00
+630.0000E-03,+1.9942619E+00,+1.9820116E+00
+630.5000E-03,+1.9565533E+00,+1.9832679E+00
+631.0000E-03,+1.9023423E+00,+1.9831674E+00
+631.5000E-03,+1.8914680E+00,+1.9821121E+00
+632.0000E-03,+1.9233877E+00,+1.9823131E+00
+632.5000E-03,+1.9281313E+00,+1.9820116E+00
+633.0000E-03,+1.9371967E+00,+1.9832679E+00
+633.5000E-03,+1.9479505E+00,+1.9820116E+00
+634.0000E-03,+1.9579605E+00,+1.9820116E+00
+634.5000E-03,+1.9649153E+00,+1.9820618E+00
+635.0000E-03,+1.9530559E+00,+1.9832679E+00
+635.5000E-03,+1.9681917E+00,+1.9820116E+00
+636.0000E-03,+1.9827845E+00,+1.9832679E+00
+636.5000E-03,+1.9727946E+00,+1.9824136E+00
+637.0000E-03,+1.9456991E+00,+1.9822126E+00
+637.5000E-03,+1.9373775E+00,+1.9820116E+00
+638.0000E-03,+1.9327947E+00,+1.9820116E+00
+638.5000E-03,+1.9375182E+00,+1.9832679E+00
+639.0000E-03,+1.9532972E+00,+1.9826146E+00
+639.5000E-03,+1.9680108E+00,+1.9820116E+00
+640.0000E-03,+1.9797896E+00,+1.9820116E+00
+640.5000E-03,+1.9832871E+00,+1.9820116E+00
+641.0000E-03,+1.9966740E+00,+1.9820116E+00
+641.5000E-03,+1.9858599E+00,+1.9823633E+00
+642.0000E-03,+1.9896790E+00,+1.9820116E+00
+642.5000E-03,+1.9843123E+00,+1.9820116E+00
+643.0000E-03,+1.9791062E+00,+1.9832679E+00
+643.5000E-03,+1.9685936E+00,+1.9820116E+00
+644.0000E-03,+1.9612168E+00,+1.9820116E+00
+644.5000E-03,+1.9547845E+00,+1.9829664E+00
+645.0000E-03,+1.9424026E+00,+1.9820116E+00
+645.5000E-03,+1.9363122E+00,+1.9820116E+00
+646.0000E-03,+1.9379405E+00,+1.9829161E+00
+646.5000E-03,+1.9786641E+00,+1.9820116E+00
+647.0000E-03,+1.9922318E+00,+1.9820116E+00
+647.5000E-03,+1.9807946E+00,+1.9820116E+00
+648.0000E-03,+1.9724529E+00,+1.9820116E+00
+648.5000E-03,+1.9823022E+00,+1.9820116E+00
+649.0000E-03,+1.9877695E+00,+1.9820116E+00
+649.5000E-03,+1.9781615E+00,+1.9830669E+00
+650.0000E-03,+1.9871263E+00,+1.9820116E+00
+650.5000E-03,+1.9867443E+00,+1.9832679E+00
+651.0000E-03,+1.9827645E+00,+1.9820116E+00
+651.5000E-03,+1.9822419E+00,+1.9820116E+00
+652.0000E-03,+1.9897393E+00,+1.9820116E+00
+652.5000E-03,+1.9821011E+00,+1.9822629E+00
+653.0000E-03,+1.9758098E+00,+1.9820116E+00
+653.5000E-03,+1.9782017E+00,+1.9832679E+00
+654.0000E-03,+1.9937192E+00,+1.9829161E+00
+654.5000E-03,+2.0001112E+00,+1.9825643E+00
+655.0000E-03,+1.9958700E+00,+1.9827653E+00
+655.5000E-03,+1.9950860E+00,+1.9820116E+00
+656.0000E-03,+1.9998700E+00,+1.9831674E+00
+656.5000E-03,+1.9974579E+00,+1.9832679E+00
+657.0000E-03,+1.9837694E+00,+1.9832679E+00
+657.5000E-03,+1.9680308E+00,+1.9827654E+00
+658.0000E-03,+1.9568550E+00,+1.9832679E+00
+658.5000E-03,+1.9416789E+00,+1.9820116E+00
+659.0000E-03,+1.9376791E+00,+1.9820116E+00
+659.5000E-03,+1.9433072E+00,+1.9820618E+00
+660.0000E-03,+1.9748652E+00,+1.9820116E+00
+660.5000E-03,+1.9860409E+00,+1.9828156E+00
+661.0000E-03,+1.9954681E+00,+1.9820116E+00
+661.5000E-03,+2.0290761E+00,+1.9820116E+00
+662.0000E-03,+2.0361714E+00,+1.9820116E+00
+662.5000E-03,+2.0102418E+00,+1.9820116E+00
+663.0000E-03,+2.0029454E+00,+1.9820116E+00
+663.5000E-03,+1.9968952E+00,+1.9820116E+00
+664.0000E-03,+2.0005334E+00,+1.9820116E+00
+664.5000E-03,+2.0023223E+00,+1.9820116E+00
+665.0000E-03,+2.0307445E+00,+1.9820116E+00
+665.5000E-03,+2.0590660E+00,+1.9820116E+00
+666.0000E-03,+2.0588247E+00,+1.9820116E+00
+666.5000E-03,+2.0122115E+00,+1.9832679E+00
+667.0000E-03,+1.9718698E+00,+1.9827151E+00
+667.5000E-03,+1.8719502E+00,+1.9820116E+00
+668.0000E-03,+1.8520310E+00,+1.9820116E+00
+668.5000E-03,+1.9185637E+00,+1.9820116E+00
+669.0000E-03,+1.9551866E+00,+1.9820116E+00
+669.5000E-03,+1.9530559E+00,+1.9823131E+00
+670.0000E-03,+1.9482318E+00,+1.9820116E+00
+670.5000E-03,+1.9599906E+00,+1.9820116E+00
+671.0000E-03,+1.9544026E+00,+1.9820116E+00
+671.5000E-03,+1.9490760E+00,+1.9820116E+00
+672.0000E-03,+1.9612570E+00,+1.9820116E+00
+672.5000E-03,+1.9904429E+00,+1.9820116E+00
+673.0000E-03,+2.0116289E+00,+1.9812076E+00
+673.5000E-03,+2.0239302E+00,+1.9820116E+00
+674.0000E-03,+2.0158095E+00,+1.9807553E+00
+674.5000E-03,+1.9876689E+00,+1.9820116E+00
+675.0000E-03,+1.9589856E+00,+1.9832679E+00
+675.5000E-03,+1.9630659E+00,+1.9820116E+00
+676.0000E-03,+1.9613776E+00,+1.9816096E+00
+676.5000E-03,+1.9714078E+00,+1.9820116E+00
+677.0000E-03,+1.9729755E+00,+1.9820116E+00
+677.5000E-03,+1.9823022E+00,+1.9820116E+00
+678.0000E-03,+1.9892769E+00,+1.9820116E+00
+678.5000E-03,+1.9816991E+00,+1.9820116E+00
+679.0000E-03,+1.9736187E+00,+1.9811071E+00
+679.5000E-03,+1.9673675E+00,+1.9820116E+00
+680.0000E-03,+1.9777796E+00,+1.9820116E+00
+680.5000E-03,+1.9754680E+00,+1.9820116E+00
+681.0000E-03,+1.9731362E+00,+1.9820116E+00
+681.5000E-03,+1.9537795E+00,+1.9820116E+00
+682.0000E-03,+1.9412167E+00,+1.9820116E+00
+682.5000E-03,+1.9516489E+00,+1.9812578E+00
+683.0000E-03,+1.9537595E+00,+1.9807553E+00
+683.5000E-03,+1.9800109E+00,+1.9820116E+00
+684.0000E-03,+2.0116488E+00,+1.9820116E+00
+684.5000E-03,+2.0187042E+00,+1.9820116E+00
+685.0000E-03,+2.0335585E+00,+1.9820116E+00
+685.5000E-03,+2.0485534E+00,+1.9820116E+00
+686.0000E-03,+2.0562318E+00,+1.9820116E+00
+686.5000E-03,+2.0496992E+00,+1.9832679E+00
+687.0000E-03,+2.0547243E+00,+1.9830668E+00
+687.5000E-03,+2.0419001E+00,+1.9820116E+00
+688.0000E-03,+2.0483726E+00,+1.9822126E+00
+688.5000E-03,+2.0541816E+00,+1.9824136E+00
+689.0000E-03,+2.0581815E+00,+1.9826146E+00
+689.5000E-03,+2.0289552E+00,+1.9824639E+00
+690.0000E-03,+1.9618998E+00,+1.9822629E+00
+690.5000E-03,+1.8814177E+00,+1.9832176E+00
+691.0000E-03,+1.8906439E+00,+1.9820116E+00
+691.5000E-03,+1.9132168E+00,+1.9820116E+00
+692.0000E-03,+1.9382621E+00,+1.9820116E+00
+692.5000E-03,+1.9529555E+00,+1.9820116E+00
+693.0000E-03,+1.9662217E+00,+1.9820116E+00
+693.5000E-03,+1.9450357E+00,+1.9820116E+00
+694.0000E-03,+1.9121112E+00,+1.9820116E+00
+694.5000E-03,+1.8577995E+00,+1.9817101E+00
+695.0000E-03,+1.8260207E+00,+1.9820116E+00
+695.5000E-03,+1.8324530E+00,+1.9807553E+00
+696.0000E-03,+1.8669053E+00,+1.9820116E+00
+696.5000E-03,+1.9207948E+00,+1.9820116E+00
+697.0000E-03,+1.9429052E+00,+1.9819614E+00
+697.5000E-03,+1.9539604E+00,+1.9807553E+00
+698.0000E-03,+1.9788448E+00,+1.9820116E+00
+698.5000E-03,+1.9861010E+00,+1.9820116E+00
+699.0000E-03,+1.9679304E+00,+1.9816096E+00
+699.5000E-03,+1.9754680E+00,+1.9820116E+00
+700.0000E-03,+1.9700409E+00,+1.9820116E+00
+700.5000E-03,+1.9625433E+00,+1.9820116E+00
+701.0000E-03,+1.9712670E+00,+1.9811573E+00
+701.5000E-03,+1.9728751E+00,+1.9820116E+00
+702.0000E-03,+1.9765735E+00,+1.9820116E+00
+702.5000E-03,+1.9865233E+00,+1.9817603E+00
+703.0000E-03,+1.9811766E+00,+1.9807553E+00
+703.5000E-03,+1.9886338E+00,+1.9818608E+00
+704.0000E-03,+1.9761716E+00,+1.9820116E+00
+704.5000E-03,+1.9881715E+00,+1.9820116E+00
+705.0000E-03,+1.9859201E+00,+1.9820116E+00
+705.5000E-03,+1.9680308E+00,+1.9807553E+00
+706.0000E-03,+1.9649757E+00,+1.9807553E+00
+706.5000E-03,+1.9957696E+00,+1.9819111E+00
+707.0000E-03,+1.9900208E+00,+1.9820116E+00
+707.5000E-03,+1.9929554E+00,+1.9820116E+00
+708.0000E-03,+1.9802720E+00,+1.9820116E+00
+708.5000E-03,+1.9755486E+00,+1.9820116E+00
+709.0000E-03,+1.9834680E+00,+1.9820116E+00
+709.5000E-03,+1.9873473E+00,+1.9820116E+00
+710.0000E-03,+1.9964730E+00,+1.9810065E+00
+710.5000E-03,+1.9799302E+00,+1.9812076E+00
+711.0000E-03,+1.9664831E+00,+1.9814086E+00
+711.5000E-03,+1.9607545E+00,+1.9807553E+00
+712.0000E-03,+1.9561514E+00,+1.9807553E+00
+712.5000E-03,+1.9569755E+00,+1.9807553E+00
+713.0000E-03,+1.9474077E+00,+1.9820116E+00
+713.5000E-03,+1.9523324E+00,+1.9807553E+00
+714.0000E-03,+1.9738399E+00,+1.9820116E+00
+714.5000E-03,+1.9769554E+00,+1.9807553E+00
+715.0000E-03,+1.9622016E+00,+1.9807553E+00
+715.5000E-03,+1.9543222E+00,+1.9807553E+00
+716.0000E-03,+1.9472469E+00,+1.9807553E+00
+716.5000E-03,+1.9633475E+00,+1.9804036E+00
+717.0000E-03,+1.9835284E+00,+1.9807553E+00
+717.5000E-03,+1.9980811E+00,+1.9807553E+00
+718.0000E-03,+2.0124931E+00,+1.9807553E+00
+718.5000E-03,+2.0079705E+00,+1.9808558E+00
+719.0000E-03,+1.9999906E+00,+1.9807553E+00
+719.5000E-03,+1.9792267E+00,+1.9807553E+00
+720.0000E-03,+1.9673273E+00,+1.9820116E+00
+720.5000E-03,+1.9773776E+00,+1.9807553E+00
+721.0000E-03,+2.0004931E+00,+1.9807553E+00
+721.5000E-03,+1.9900610E+00,+1.9807553E+00
+722.0000E-03,+1.9946841E+00,+1.9807553E+00
+722.5000E-03,+1.9881313E+00,+1.9807553E+00
+723.0000E-03,+1.9712871E+00,+1.9815593E+00
+723.5000E-03,+1.9786438E+00,+1.9807553E+00
+724.0000E-03,+1.9822218E+00,+1.9807553E+00
+724.5000E-03,+1.9767343E+00,+1.9807553E+00
+725.0000E-03,+1.9705434E+00,+1.9807553E+00
+725.5000E-03,+1.9672269E+00,+1.9807553E+00
+726.0000E-03,+1.9566940E+00,+1.9803533E+00
+726.5000E-03,+1.9550257E+00,+1.9807553E+00
+727.0000E-03,+1.9554882E+00,+1.9807553E+00
+727.5000E-03,+1.9599907E+00,+1.9807553E+00
+728.0000E-03,+1.9687143E+00,+1.9807553E+00
+728.5000E-03,+1.9761916E+00,+1.9807553E+00
+729.0000E-03,+1.9753072E+00,+1.9807553E+00
+729.5000E-03,+1.9683122E+00,+1.9800518E+00
+730.0000E-03,+1.9676287E+00,+1.9807553E+00
+730.5000E-03,+1.9565132E+00,+1.9817101E+00
+731.0000E-03,+1.9589454E+00,+1.9807553E+00
+731.5000E-03,+1.9738802E+00,+1.9807553E+00
+732.0000E-03,+1.9757896E+00,+1.9807553E+00
+732.5000E-03,+1.9742620E+00,+1.9794990E+00
+733.0000E-03,+1.9714679E+00,+1.9807553E+00
+733.5000E-03,+1.9675283E+00,+1.9807553E+00
+734.0000E-03,+1.9621012E+00,+1.9807553E+00
+734.5000E-03,+1.9630055E+00,+1.9807553E+00
+735.0000E-03,+1.9661213E+00,+1.9807553E+00
+735.5000E-03,+1.9741213E+00,+1.9807553E+00
+736.0000E-03,+1.9833072E+00,+1.9807553E+00
+736.5000E-03,+1.9896790E+00,+1.9807553E+00
+737.0000E-03,+1.9793474E+00,+1.9807553E+00
+737.5000E-03,+1.9765735E+00,+1.9807553E+00
+738.0000E-03,+1.9753876E+00,+1.9805543E+00
+738.5000E-03,+1.9973575E+00,+1.9807553E+00
+739.0000E-03,+2.0087142E+00,+1.9807553E+00
+739.5000E-03,+2.0127746E+00,+1.9820116E+00
+740.0000E-03,+2.0228047E+00,+1.9817603E+00
+740.5000E-03,+2.0176991E+00,+1.9808056E+00
+741.0000E-03,+1.9894980E+00,+1.9809060E+00
+741.5000E-03,+1.9568348E+00,+1.9811070E+00
+742.0000E-03,+1.9631463E+00,+1.9825643E+00
+742.5000E-03,+1.9472267E+00,+1.9812578E+00
+743.0000E-03,+1.9499002E+00,+1.9807553E+00
+743.5000E-03,+1.9532569E+00,+1.9807553E+00
+744.0000E-03,+1.9537393E+00,+1.9807553E+00
+744.5000E-03,+1.9461413E+00,+1.9817101E+00
+745.0000E-03,+1.9434078E+00,+1.9815091E+00
+745.5000E-03,+1.9472269E+00,+1.9807553E+00
+746.0000E-03,+1.9685535E+00,+1.9807553E+00
+746.5000E-03,+1.9733775E+00,+1.9807553E+00
+747.0000E-03,+1.9715685E+00,+1.9820116E+00
+747.5000E-03,+1.9723524E+00,+1.9807553E+00
+748.0000E-03,+1.9652368E+00,+1.9807553E+00
+748.5000E-03,+1.9695988E+00,+1.9813583E+00
+749.0000E-03,+1.9677293E+00,+1.9807553E+00
+749.5000E-03,+1.9598096E+00,+1.9809563E+00
+750.0000E-03,+1.9474278E+00,+1.9807553E+00
+750.5000E-03,+1.9467846E+00,+1.9807553E+00
+751.0000E-03,+1.9582621E+00,+1.9807553E+00
+751.5000E-03,+1.9654981E+00,+1.9807553E+00
+752.0000E-03,+1.9663826E+00,+1.9807553E+00
+752.5000E-03,+1.9797895E+00,+1.9810066E+00
+753.0000E-03,+1.9659805E+00,+1.9807553E+00
+753.5000E-03,+1.9598700E+00,+1.9807553E+00
+754.0000E-03,+1.9656791E+00,+1.9811070E+00
+754.5000E-03,+1.9676489E+00,+1.9802026E+00
+755.0000E-03,+1.9685333E+00,+1.9807553E+00
+755.5000E-03,+1.9637091E+00,+1.9807553E+00
+756.0000E-03,+1.9840510E+00,+1.9807553E+00
+756.5000E-03,+1.9976992E+00,+1.9807553E+00
+757.0000E-03,+1.9914679E+00,+1.9807553E+00
+757.5000E-03,+1.9839102E+00,+1.9807553E+00
+758.0000E-03,+1.9853975E+00,+1.9807553E+00
+758.5000E-03,+1.9686941E+00,+1.9807553E+00
+759.0000E-03,+1.9558900E+00,+1.9807553E+00
+759.5000E-03,+1.9521716E+00,+1.9807553E+00
+760.0000E-03,+1.9270258E+00,+1.9807553E+00
+760.5000E-03,+1.9048348E+00,+1.9807553E+00
+761.0000E-03,+1.9000912E+00,+1.9801523E+00
+761.5000E-03,+1.9245334E+00,+1.9794990E+00
+762.0000E-03,+1.9408147E+00,+1.9807553E+00
+762.5000E-03,+1.9464229E+00,+1.9807553E+00
+763.0000E-03,+1.9742018E+00,+1.9807553E+00
+763.5000E-03,+2.0062218E+00,+1.9799010E+00
+764.0000E-03,+2.0019605E+00,+1.9807553E+00
+764.5000E-03,+2.0013171E+00,+1.9807553E+00
+765.0000E-03,+1.9688347E+00,+1.9807553E+00
+765.5000E-03,+1.9524730E+00,+1.9795493E+00
+766.0000E-03,+1.9590862E+00,+1.9794990E+00
+766.5000E-03,+1.9694782E+00,+1.9804036E+00
+767.0000E-03,+1.9595083E+00,+1.9802026E+00
+767.5000E-03,+1.9834077E+00,+1.9807553E+00
+768.0000E-03,+1.9923926E+00,+1.9794990E+00
+768.5000E-03,+1.9873273E+00,+1.9806548E+00
+769.0000E-03,+1.9767141E+00,+1.9795995E+00
+769.5000E-03,+1.9699001E+00,+1.9798005E+00
+770.0000E-03,+1.9710460E+00,+1.9794990E+00
+770.5000E-03,+1.9824429E+00,+1.9802025E+00
+771.0000E-03,+1.9665231E+00,+1.9807553E+00
+771.5000E-03,+1.9652169E+00,+1.9794990E+00
+772.0000E-03,+1.9644327E+00,+1.9807553E+00
+772.5000E-03,+1.9597896E+00,+1.9807553E+00
+773.0000E-03,+1.9507243E+00,+1.9794990E+00
+773.5000E-03,+1.9594278E+00,+1.9794990E+00
+774.0000E-03,+1.9514479E+00,+1.9794990E+00
+774.5000E-03,+1.9389655E+00,+1.9807553E+00
+775.0000E-03,+1.9589857E+00,+1.9807553E+00
+775.5000E-03,+1.9845736E+00,+1.9794990E+00
+776.0000E-03,+1.9892770E+00,+1.9799010E+00
+776.5000E-03,+1.9798296E+00,+1.9807553E+00
+777.0000E-03,+1.9676086E+00,+1.9794990E+00
+777.5000E-03,+1.9733575E+00,+1.9805040E+00
+778.0000E-03,+1.9771967E+00,+1.9807553E+00
+778.5000E-03,+1.9941816E+00,+1.9794990E+00
+779.0000E-03,+1.9935183E+00,+1.9794990E+00
+779.5000E-03,+1.9757896E+00,+1.9807553E+00
