"t / s","CH1 / V","f / Hz","SP1 / dB"
0,-0.0913131,0,-60
0.0001,-0.0682828,0.5,-56.2011
0.0002,-0.0779798,1,-60
0.0003,-0.08,1.5,-49.4343
0.0004,-0.0707071,2,-47.987
0.0005,-0.079596,2.5,-46.3322
0.0006,-0.0864646,3,-47.5368
0.0007,-0.0933333,3.5,-47.9452
0.0008,-0.0812121,4,-49.54
0.0009,-0.0864646,4.5,-49.6591
0.001,-0.0852525,5,-48.4787
0.0011,-0.0791919,5.5,-44.6136
0.0012,-0.0808081,6,-42.5763
0.0013,-0.0662626,6.5,-40.4764
0.0014,-0.0452525,7,-38.2653
0.0015,-0.0589899,7.5,-36.1984
0.0016,-0.0808081,8,-34.9595
0.0017,-0.0755556,8.5,-34.0792
0.0018,-0.0715152,9,-34.0186
0.0019,-0.0541414,9.5,-33.7802
0.002,-0.0791919,10,-34.6267
0.0021,-0.0820202,10.5,-36.2974
0.0022,-0.0779798,11,-38.0677
0.0023,-0.0723232,11.5,-39.9042
0.0024,-0.0787879,12,-38.8309
0.0025,-0.0852525,12.5,-36.4228
0.0026,-0.0666667,13,-33.3255
0.0027,-0.0654545,13.5,-31.0644
0.0028,-0.0828283,14,-29.2314
0.0029,-0.0836364,14.5,-28.0158
0.003,-0.110303,15,-26.935
0.0031,-0.0913131,15.5,-26.1899
0.0032,-0.0945455,16,-25.8394
0.0033,-0.121616,16.5,-25.8619
0.0034,-0.122424,17,-26.1802
0.0035,-0.121212,17.5,-26.6739
0.0036,-0.119192,18,-27.531
0.0037,-0.125253,18.5,-28.8423
0.0038,-0.131717,19,-30.6637
0.0039,-0.125253,19.5,-33.033
0.004,-0.121616,20,-37.6596
0.0041,-0.129697,20.5,-47.1652
0.0042,-0.149899,21,-48.0106
0.0043,-0.128485,21.5,-39.0967
0.0044,-0.123232,22,-34.7803
0.0045,-0.121616,22.5,-32.917
0.0046,-0.121212,23,-31.9147
0.0047,-0.11798,23.5,-31.1378
0.0048,-0.116364,24,-29.9132
0.0049,-0.121616,24.5,-29.1657
0.005,-0.123232,25,-28.446
0.0051,-0.121616,25.5,-27.7903
0.0052,-0.12202,26,-27.1858
0.0053,-0.131313,26.5,-26.7384
0.0054,-0.122424,27,-26.1198
0.0055,-0.14101,27.5,-25.9917
0.0056,-0.143838,28,-26.4251
0.0057,-0.125253,28.5,-27.01
0.0058,-0.125253,29,-27.6501
0.0059,-0.125253,29.5,-28.2738
0.006,-0.138586,30,-29.0454
0.0061,-0.113939,30.5,-29.9748
0.0062,-0.118788,31,-31.4922
0.0063,-0.111515,31.5,-32.2162
0.0064,-0.115152,32,-32.6392
0.0065,-0.115556,32.5,-33.4648
0.0066,-0.120808,33,-36.4407
0.0067,-0.120404,33.5,-40.8331
0.0068,-0.121616,34,-40.5805
0.0069,-0.121616,34.5,-37.9434
0.007,-0.119596,35,-36.7205
0.0071,-0.121212,35.5,-36.1391
0.0072,-0.120808,36,-36.3583
0.0073,-0.121212,36.5,-37.8926
0.0074,-0.123232,37,-39.2597
0.0075,-0.12202,37.5,-37.3438
0.0076,-0.122424,38,-33.8753
0.0077,-0.121616,38.5,-31.2031
0.0078,-0.114343,39,-29.1847
0.0079,-0.11798,39.5,-27.6774
0.008,-0.109495,40,-26.3046
0.0081,-0.120808,40.5,-25.7073
0.0082,-0.121212,41,-25.3845
0.0083,-0.099798,41.5,-25.0204
0.0084,-0.0860606,42,-25.6136
0.0085,-0.110707,42.5,-26.9808
0.0086,-0.117576,43,-28.3517
0.0087,-0.103838,43.5,-29.1582
0.0088,-0.0892929,44,-29.504
0.0089,-0.0957576,44.5,-29.4167
0.009,-0.0791919,45,-28.5704
0.0091,-0.0666667,45.5,-27.5089
0.0092,-0.0925253,46,-26.4943
0.0093,-0.116768,46.5,-25.8022
0.0094,-0.12,47,-25.4051
0.0095,-0.123232,47.5,-24.5498
0.0096,-0.123232,48,-24.058
0.0097,-0.117576,48.5,-23.6984
0.0098,-0.121212,49,-23.4673
0.0099,-0.127677,49.5,-23.8128
0.01,-0.134141,50,-24.3904
0.0101,-0.139394,50.5,-24.994
0.0102,-0.128081,51,-26.0547
0.0103,-0.120808,51.5,-28.0385
0.0104,-0.122424,52,-30.3437
0.0105,-0.147475,52.5,-33.2902
0.0106,-0.143434,53,-35.4083
0.0107,-0.129293,53.5,-37.6364
0.0108,-0.125657,54,-42.3059
0.0109,-0.13899,54.5,-44.0968
0.011,-0.14303,55,-48.1235
0.0111,-0.125253,55.5,-51.0373
0.0112,-0.123636,56,-42.8948
0.0113,-0.132121,56.5,-37.8891
0.0114,-0.142626,57,-35.1143
0.0115,-0.138586,57.5,-33.1629
0.0116,-0.122828,58,-32.6499
0.0117,-0.119596,58.5,-33.2623
0.0118,-0.126869,59,-33.6864
0.0119,-0.136162,59.5,-32.777
0.012,-0.149495,60,-33.0488
0.0121,-0.134545,60.5,-33.8772
0.0122,-0.123232,61,-34.2247
0.0123,-0.12202,61.5,-35.7251
0.0124,-0.122828,62,-38.1155
0.0125,-0.122424,62.5,-42.6707
0.0126,-0.132929,63,-48.6634
0.0127,-0.140202,63.5,-53.2817
0.0128,-0.15798,64,-40.6229
0.0129,-0.163232,64.5,-37.2466
0.013,-0.144242,65,-36.01
0.0131,-0.124848,65.5,-33.4314
0.0132,-0.143838,66,-31.6626
0.0133,-0.147879,66.5,-31.3335
0.0134,-0.148687,67,-30.5512
0.0135,-0.126061,67.5,-29.7568
0.0136,-0.122828,68,-29.6999
0.0137,-0.12,68.5,-29.6718
0.0138,-0.112727,69,-29.4077
0.0139,-0.108283,69.5,-29.5689
0.014,-0.114747,70,-30.2934
0.0141,-0.0977778,70.5,-30.9971
0.0142,-0.0969697,71,-31.9431
0.0143,-0.0852525,71.5,-33.2157
0.0144,-0.0820202,72,-34.4465
0.0145,-0.0876768,72.5,-37.9956
0.0146,-0.10101,73,-41.7151
0.0147,-0.0985859,73.5,-49.5239
0.0148,-0.0812121,74,-42.4653
0.0149,-0.0840404,74.5,-36.5121
0.015,-0.0808081,75,-33.4957
0.0151,-0.0832323,75.5,-33.1048
0.0152,-0.0828283,76,-33.1255
0.0153,-0.080404,76.5,-33.6387
0.0154,-0.0917172,77,-33.7372
0.0155,-0.090101,77.5,-33.5121
0.0156,-0.0840404,78,-33.2497
0.0157,-0.0808081,78.5,-32.5607
0.0158,-0.0808081,79,-33.983
0.0159,-0.0892929,79.5,-35.8679
0.016,-0.103838,80,-36.9114
0.0161,-0.0884848,80.5,-37.9293
0.0162,-0.105455,81,-40.3649
0.0163,-0.089697,81.5,-39.9198
0.0164,-0.0832323,82,-38.7583
0.0165,-0.0824242,82.5,-36.7715
0.0166,-0.0985859,83,-35.8517
0.0167,-0.102626,83.5,-34.3227
0.0168,-0.110707,84,-32.7666
0.0169,-0.105859,84.5,-32.0934
0.017,-0.114747,85,-32.5188
0.0171,-0.111515,85.5,-34.1139
0.0172,-0.11798,86,-35.7695
0.0173,-0.120808,86.5,-37.8792
0.0174,-0.116364,87,-39.9713
0.0175,-0.120808,87.5,-41.904
0.0176,-0.0937374,88,-40.8553
0.0177,-0.0840404,88.5,-38.9119
0.0178,-0.104242,89,-37.454
0.0179,-0.100606,89.5,-37.6144
0.018,-0.0993939,90,-38.3354
0.0181,-0.119192,90.5,-39.3643
0.0182,-0.12202,91,-41.4206
0.0183,-0.120404,91.5,-42.2909
0.0184,-0.120808,92,-43.294
0.0185,-0.121616,92.5,-45.7719
0.0186,-0.131717,93,-44.4438
0.0187,-0.126465,93.5,-44.2915
0.0188,-0.153535,94,-43.9873
0.0189,-0.166869,94.5,-46.3747
0.019,-0.189091,95,-51.2188
0.0191,-0.169293,95.5,-46.5813
0.0192,-0.164848,96,-41.4356
0.0193,-0.18303,96.5,-37.1353
0.0194,-0.164848,97,-34.2792
0.0195,-0.166061,97.5,-33.1994
0.0196,-0.145455,98,-31.6329
0.0197,-0.159596,98.5,-30.7232
0.0198,-0.16404,99,-30.3531
0.0199,-0.148283,99.5,-30.3814
0.02,-0.128889,100,-30.7882
0.0201,-0.122424,100.5,-31.0618
0.0202,-0.121616,101,-31.7341
0.0203,-0.141414,101.5,-33.4852
0.0204,-0.13697,102,-34.1234
0.0205,-0.123232,102.5,-35.0852
0.0206,-0.121616,103,-39.4398
0.0207,-0.121212,103.5,-44.5615
0.0208,-0.120808,104,-41.6517
0.0209,-0.119192,104.5,-39.4626
0.021,-0.126061,105,-37.8402
0.0211,-0.123636,105.5,-35.8565
0.0212,-0.120404,106,-35.0009
0.0213,-0.123232,106.5,-36.5541
0.0214,-0.127677,107,-35.9972
0.0215,-0.128889,107.5,-36.9291
0.0216,-0.146263,108,-40.1419
0.0217,-0.163636,108.5,-45.2594
0.0218,-0.140202,109,-54.9128
0.0219,-0.146263,109.5,-41.1593
0.022,-0.169697,110,-36.1581
0.0221,-0.168889,110.5,-34.3227
0.0222,-0.165657,111,-32.6164
0.0223,-0.156768,111.5,-31.3278
0.0224,-0.136566,112,-31.0301
0.0225,-0.138182,112.5,-31.3746
0.0226,-0.16,113,-31.7706
0.0227,-0.144242,113.5,-33.4161
0.0228,-0.139798,114,-34.6726
0.0229,-0.156768,114.5,-35.9314
0.023,-0.155556,115,-38.0498
0.0231,-0.149091,115.5,-39.1496
0.0232,-0.170505,116,-43.4529
0.0233,-0.161616,116.5,-49.2733
0.0234,-0.14101,117,-53.6796
0.0235,-0.141818,117.5,-41.595
0.0236,-0.150707,118,-35.8553
0.0237,-0.157576,118.5,-32.397
0.0238,-0.153535,119,-30.6241
0.0239,-0.145455,119.5,-29.9533
0.024,-0.147475,120,-30.2463
0.0241,-0.172929,120.5,-30.6642
0.0242,-0.193939,121,-31.6916
0.0243,-0.182626,121.5,-33.5089
0.0244,-0.161212,122,-36.0379
0.0245,-0.155556,122.5,-40.4564
0.0246,-0.181414,123,-48.3658
0.0247,-0.19798,123.5,-60
0.0248,-0.2,124,-46.932
0.0249,-0.201616,124.5,-42.1508
0.025,-0.20202,125,-42.7904
0.0251,-0.20202,125.5,-46.4197
0.0252,-0.202828,126,-59.6198
0.0253,-0.200808,126.5,-48.8988
0.0254,-0.201616,127,-41.9975
0.0255,-0.204848,127.5,-41.4788
0.0256,-0.201616,128,-41.9863
0.0257,-0.186667,128.5,-41.2931
0.0258,-0.170101,129,-40.707
0.0259,-0.147879,129.5,-39.8928
0.026,-0.124444,130,-37.9978
0.0261,-0.125657,130.5,-37.4917
0.0262,-0.121212,131,-37.3862
0.0263,-0.101414,131.5,-36.1345
0.0264,-0.0876768,132,-35.0499
0.0265,-0.0763636,132.5,-34.6142
0.0266,-0.0969697,133,-34.815
0.0267,-0.0836364,133.5,-35.871
0.0268,-0.0557576,134,-35.888
0.0269,-0.0436364,134.5,-36.316
0.027,-0.040404,135,-38.1991
0.0271,-0.040404,135.5,-40.5783
0.0272,-0.0210101,136,-42.85
0.0273,-0.0258586,136.5,-44.6947
0.0274,-0.040404,137,-45.0489
0.0275,-0.0307071,137.5,-47.8003
0.0276,-0.0274747,138,-50.4097
0.0277,-0.04,138.5,-54.4068
0.0278,-0.04,139,-46.0853
0.0279,-0.0416162,139.5,-43.0476
0.028,-0.0387879,140,-41.3042
0.0281,-0.0359596,140.5,-40.0878
0.0282,-0.039596,141,-39.1942
0.0283,-0.0448485,141.5,-38.0479
0.0284,-0.0432323,142,-38.8164
0.0285,-0.0408081,142.5,-38.6711
0.0286,-0.0476768,143,-36.9816
0.0287,-0.0727273,143.5,-35.7578
0.0288,-0.080404,144,-34.5587
0.0289,-0.106667,144.5,-33.6193
0.029,-0.119192,145,-34.1576
0.0291,-0.114747,145.5,-34.4767
0.0292,-0.115556,146,-33.9582
0.0293,-0.111919,146.5,-33.9929
0.0294,-0.121616,147,-35.6341
0.0295,-0.135758,147.5,-36.1239
0.0296,-0.12404,148,-36.645
0.0297,-0.125657,148.5,-37.286
0.0298,-0.129293,149,-37.0363
0.0299,-0.157576,149.5,-36.3947
0.03,-0.149899,150,-34.7471
0.0301,-0.149091,150.5,-33.6085
0.0302,-0.139798,151,-33.7727
0.0303,-0.147879,151.5,-34.3769
0.0304,-0.133333,152,-34.0656
0.0305,-0.129293,152.5,-34.5031
0.0306,-0.140202,153,-35.2546
0.0307,-0.127273,153.5,-34.94
0.0308,-0.12404,154,-34.9804
0.0309,-0.141414,154.5,-34.7182
0.031,-0.144646,155,-34.9574
0.0311,-0.121212,155.5,-35.8391
0.0312,-0.121212,156,-35.0683
0.0313,-0.123232,156.5,-33.4871
0.0314,-0.121616,157,-33.9053
0.0315,-0.12202,157.5,-33.7065
0.0316,-0.114747,158,-32.8476
0.0317,-0.120808,158.5,-32.8314
0.0318,-0.117576,159,-33.3133
0.0319,-0.101414,159.5,-32.9044
0.032,-0.0993939,160,-31.4904
0.0321,-0.0977778,160.5,-30.9696
0.0322,-0.118384,161,-31.3089
0.0323,-0.116768,161.5,-32.0705
0.0324,-0.112727,162,-32.716
0.0325,-0.0892929,162.5,-33.7095
0.0326,-0.10303,163,-34.7825
0.0327,-0.12,163.5,-34.5494
0.0328,-0.121212,164,-34.4801
0.0329,-0.111919,164.5,-35.0576
0.033,-0.100606,165,-35.0778
0.0331,-0.0937374,165.5,-35.5007
0.0332,-0.121616,166,-35.9593
0.0333,-0.12202,166.5,-36.0305
0.0334,-0.126061,167,-35.258
0.0335,-0.140606,167.5,-35.6105
0.0336,-0.122424,168,-36.9427
0.0337,-0.134141,168.5,-37.2355
0.0338,-0.134949,169,-38.374
0.0339,-0.150707,169.5,-37.7932
0.034,-0.151111,170,-36.9328
0.0341,-0.161212,170.5,-37.8082
0.0342,-0.178182,171,-39.0253
0.0343,-0.145455,171.5,-40.1573
0.0344,-0.145859,172,-40.1005
0.0345,-0.171717,172.5,-39.7866
0.0346,-0.168485,173,-40.9606
0.0347,-0.166869,173.5,-41.5277
0.0348,-0.153939,174,-41.7973
0.0349,-0.126465,174.5,-43.4012
0.035,-0.143838,175,-43.2893
0.0351,-0.158788,175.5,-42.1655
0.0352,-0.149899,176,-40.9759
0.0353,-0.167273,176.5,-42.503
0.0354,-0.183434,177,-43.7246
0.0355,-0.157172,177.5,-41.5723
0.0356,-0.153535,178,-41.6145
0.0357,-0.156364,178.5,-43.8477
0.0358,-0.16202,179,-42.5645
0.0359,-0.160404,179.5,-41.6936
0.036,-0.163636,180,-41.8604
0.0361,-0.164848,180.5,-41.1528
0.0362,-0.16,181,-40.9256
0.0363,-0.156768,181.5,-43.2058
0.0364,-0.163232,182,-42.7551
0.0365,-0.171717,182.5,-42.6613
0.0366,-0.176162,183,-40.799
0.0367,-0.188283,183.5,-40.3789
0.0368,-0.175354,184,-41.5856
0.0369,-0.162424,184.5,-41.8224
0.037,-0.149495,185,-42.9965
0.0371,-0.147475,185.5,-43.0707
0.0372,-0.158788,186,-43.1505
0.0373,-0.157576,186.5,-45.5425
0.0374,-0.175354,187,-52.5249
0.0375,-0.197576,187.5,-60
0.0376,-0.20202,188,-59.32
0.0377,-0.201212,188.5,-50.7307
0.0378,-0.206869,189,-48.4038
0.0379,-0.208081,189.5,-45.0931
0.038,-0.213333,190,-43.0473
0.0381,-0.218586,190.5,-43.4618
0.0382,-0.203232,191,-45.3961
0.0383,-0.204848,191.5,-45.908
0.0384,-0.20202,192,-47.859
0.0385,-0.212121,192.5,-50.2569
0.0386,-0.203636,193,-52.37
0.0387,-0.20202,193.5,-51.0053
0.0388,-0.20202,194,-44.4885
0.0389,-0.191111,194.5,-43.1443
0.039,-0.179394,195,-41.6822
0.0391,-0.169293,195.5,-42.8647
0.0392,-0.161616,196,-45.3324
0.0393,-0.137778,196.5,-46.2957
0.0394,-0.119596,197,-47.7262
0.0395,-0.118384,197.5,-44.4495
0.0396,-0.0848485,198,-41.4232
0.0397,-0.0832323,198.5,-40.8058
0.0398,-0.08,199,-41.7808
0.0399,-0.079596,199.5,-41.873
0.04,-0.08,200,-42.6634
0.0401,-0.0763636,200.5,-41.1463
0.0402,-0.0981818,201,-40.6011
0.0403,-0.0937374,201.5,-39.1916
0.0404,-0.0828283,202,-39.1434
0.0405,-0.0957576,202.5,-41.3395
0.0406,-0.0848485,203,-42.1596
0.0407,-0.0820202,203.5,-43.2019
0.0408,-0.0836364,204,-46.1376
0.0409,-0.0791919,204.5,-51.4855
0.041,-0.0783838,205,-60
0.0411,-0.049697,205.5,-49.3045
0.0412,-0.0727273,206,-43.2165
0.0413,-0.0719192,206.5,-41.2941
0.0414,-0.060202,207,-40.0289
0.0415,-0.0444444,207.5,-39.573
0.0416,-0.0282828,208,-39.9613
0.0417,-0.0347475,208.5,-41.1995
0.0418,-0.0383838,209,-42.9396
0.0419,-0.039596,209.5,-44.2901
0.042,-0.0383838,210,-46.3897
0.0421,-0.0347475,210.5,-52.7215
0.0422,-0.0412121,211,-52.5477
0.0423,-0.0335354,211.5,-51.8244
0.0424,-0.0355556,212,-51.5298
0.0425,-0.040404,212.5,-49.7599
0.0426,-0.040404,213,-47.1199
0.0427,-0.0311111,213.5,-46.307
0.0428,-0.0375758,214,-47.707
0.0429,-0.0408081,214.5,-51.6789
0.043,-0.0432323,215,-52.2115
0.0431,-0.0428283,215.5,-49.362
0.0432,-0.0436364,216,-44.2853
0.0433,-0.0509091,216.5,-41.0891
0.0434,-0.0545455,217,-40.3211
0.0435,-0.0723232,217.5,-40.2377
0.0436,-0.0553535,218,-41.1169
0.0437,-0.0626263,218.5,-41.6483
0.0438,-0.08,219,-41.3381
0.0439,-0.0767677,219.5,-41.9311
0.044,-0.100202,220,-40.826
0.0441,-0.0945455,220.5,-40.501
0.0442,-0.0909091,221,-40.2471
0.0443,-0.0965657,221.5,-39.8194
0.0444,-0.10303,222,-40.3384
0.0445,-0.122424,222.5,-41.7263
0.0446,-0.121212,223,-44.1169
0.0447,-0.121212,223.5,-46.8433
0.0448,-0.121616,224,-45.9195
0.0449,-0.12404,224.5,-45.2456
0.045,-0.113939,225,-41.6314
0.0451,-0.114343,225.5,-40.1575
0.0452,-0.121212,226,-40.8025
0.0453,-0.109091,226.5,-42.0542
0.0454,-0.0981818,227,-41.4883
0.0455,-0.102222,227.5,-40.2502
0.0456,-0.0905051,228,-39.3927
0.0457,-0.0864646,228.5,-39.4038
0.0458,-0.090101,229,-40.1251
0.0459,-0.0981818,229.5,-40.6325
0.046,-0.115556,230,-40.7146
0.0461,-0.119596,230.5,-41.5617
0.0462,-0.119596,231,-43.3305
0.0463,-0.109899,231.5,-44.4769
0.0464,-0.103838,232,-45.7179
0.0465,-0.12,232.5,-46.8115
0.0466,-0.129697,233,-46.3852
0.0467,-0.137374,233.5,-42.7664
0.0468,-0.132121,234,-39.672
0.0469,-0.128081,234.5,-40.0894
0.047,-0.118788,235,-42.2814
0.0471,-0.12,235.5,-42.6954
0.0472,-0.12,236,-43.5497
0.0473,-0.127273,236.5,-43.1804
0.0474,-0.124848,237,-42.7502
0.0475,-0.124444,237.5,-43.6723
0.0476,-0.134141,238,-45.777
0.0477,-0.163636,238.5,-46.3002
0.0478,-0.164848,239,-47.0793
0.0479,-0.158788,239.5,-46.2054
0.048,-0.170505,240,-43.8425
0.0481,-0.192323,240.5,-43.809
0.0482,-0.151515,241,-45.9819
0.0483,-0.145859,241.5,-46.1424
0.0484,-0.14303,242,-49.0203
0.0485,-0.156768,242.5,-51.2206
0.0486,-0.126869,243,-51.083
0.0487,-0.126465,243.5,-47.3063
0.0488,-0.121616,244,-46.9813
0.0489,-0.126869,244.5,-45.0204
0.049,-0.151919,245,-42.0422
0.0491,-0.14101,245.5,-42.003
0.0492,-0.122424,246,-41.7568
0.0493,-0.124848,246.5,-40.2592
0.0494,-0.125657,247,-41.0939
0.0495,-0.124444,247.5,-42.0019
0.0496,-0.121212,248,-43.1977
0.0497,-0.120808,248.5,-46.0366
0.0498,-0.128485,249,-52.3066
0.0499,-0.153131,249.5,-54.9492
0.05,-0.144646,250,-52.7087
0.0501,-0.123636,250.5,-49.3342
0.0502,-0.127677,251,-48.8405
0.0503,-0.121212,251.5,-51.4635
0.0504,-0.11798,252,-48.9246
0.0505,-0.120808,252.5,-45.74
0.0506,-0.121616,253,-42.3419
0.0507,-0.129293,253.5,-39.1164
0.0508,-0.126465,254,-37.9252
0.0509,-0.12202,254.5,-38.1167
0.051,-0.12404,255,-37.7503
0.0511,-0.130505,255.5,-37.3956
0.0512,-0.144646,256,-38.5188
0.0513,-0.161616,256.5,-40.2268
0.0514,-0.155152,257,-41.075
0.0515,-0.186667,257.5,-42.74
0.0516,-0.178182,258,-44.2772
0.0517,-0.165253,258.5,-44.1678
0.0518,-0.184242,259,-45.1424
0.0519,-0.200808,259.5,-46.7007
0.052,-0.184646,260,-47.5146
0.0521,-0.166061,260.5,-55.8828
0.0522,-0.189091,261,-58.6651
0.0523,-0.199192,261.5,-55.5081
0.0524,-0.2,262,-46.7798
0.0525,-0.170101,262.5,-45.6074
0.0526,-0.163636,263,-46.2409
0.0527,-0.149495,263.5,-45.4231
0.0528,-0.147879,264,-49.0221
0.0529,-0.138182,264.5,-50.2952
0.053,-0.162828,265,-49.8565
0.0531,-0.155556,265.5,-46.8198
0.0532,-0.176566,266,-46.4187
0.0533,-0.182222,266.5,-44.1921
0.0534,-0.187475,267,-43.1369
0.0535,-0.162828,267.5,-43.1892
0.0536,-0.16202,268,-42.9784
0.0537,-0.163232,268.5,-43.8293
0.0538,-0.158384,269,-46.0109
0.0539,-0.128081,269.5,-47.0227
0.054,-0.122424,270,-44.2262
0.0541,-0.121616,270.5,-43.5706
0.0542,-0.124848,271,-45.1299
0.0543,-0.139394,271.5,-45.5397
0.0544,-0.123232,272,-44.9488
0.0545,-0.109495,272.5,-45.4702
0.0546,-0.10101,273,-44.335
0.0547,-0.112727,273.5,-45.8986
0.0548,-0.103838,274,-48.4924
0.0549,-0.0860606,274.5,-49.0559
0.055,-0.0844444,275,-50.1142
0.0551,-0.0961616,275.5,-47.7266
0.0552,-0.100606,276,-46.2496
0.0553,-0.0933333,276.5,-47.8792
0.0554,-0.10101,277,-48.8266
0.0555,-0.0973737,277.5,-48.1258
0.0556,-0.113535,278,-46.7551
0.0557,-0.0989899,278.5,-46.7895
0.0558,-0.0977778,279,-48.4459
0.0559,-0.089697,279.5,-48.0449
0.056,-0.109899,280,-51.6916
0.0561,-0.0989899,280.5,-51.3638
0.0562,-0.109091,281,-49.1401
0.0563,-0.0989899,281.5,-47.8852
0.0564,-0.0913131,282,-48.5281
0.0565,-0.117576,282.5,-49.346
0.0566,-0.117576,283,-47.4583
0.0567,-0.11798,283.5,-49.8464
0.0568,-0.104242,284,-56.7104
0.0569,-0.100606,284.5,-50.4999
0.057,-0.104646,285,-50.2673
0.0571,-0.090101,285.5,-50.7607
0.0572,-0.12202,286,-49.5503
0.0573,-0.153939,286.5,-49.7945
0.0574,-0.153131,287,-50.414
0.0575,-0.152323,287.5,-49.6495
0.0576,-0.172525,288,-51.4244
0.0577,-0.18303,288.5,-54.3196
0.0578,-0.165657,289,-60
0.0579,-0.182222,289.5,-54.0364
0.058,-0.200808,290,-49.5829
0.0581,-0.20202,290.5,-46.8412
0.0582,-0.202424,291,-44.9329
0.0583,-0.198788,291.5,-45.8547
0.0584,-0.189091,292,-44.8939
0.0585,-0.215758,292.5,-46.1113
0.0586,-0.225455,293,-50.7498
0.0587,-0.205253,293.5,-53.0634
0.0588,-0.20202,294,-55.8708
0.0589,-0.202424,294.5,-56.0919
0.059,-0.209293,295,-51.6591
0.0591,-0.229091,295.5,-49.1085
0.0592,-0.229091,296,-45.8659
0.0593,-0.22101,296.5,-43.9016
0.0594,-0.242828,297,-44.0395
0.0595,-0.24202,297.5,-42.7427
0.0596,-0.212121,298,-40.4427
0.0597,-0.208081,298.5,-39.2336
0.0598,-0.175354,299,-40.2004
0.0599,-0.154747,299.5,-41.8149
0.06,-0.127677,300,-43.5756
0.0601,-0.12,300.5,-45.3044
0.0602,-0.120404,301,-49.0128
0.0603,-0.0860606,301.5,-59.0525
0.0604,-0.0759596,302,-52.5609
0.0605,-0.0832323,302.5,-50.5399
0.0606,-0.0747475,303,-48.422
0.0607,-0.080404,303.5,-43.4439
0.0608,-0.0832323,304,-40.8048
0.0609,-0.0763636,304.5,-40.8791
0.061,-0.0973737,305,-41.664
0.0611,-0.0828283,305.5,-42.3743
0.0612,-0.0848485,306,-43.3416
0.0613,-0.0739394,306.5,-44.3531
0.0614,-0.0775758,307,-45.9093
0.0615,-0.080404,307.5,-45.6569
0.0616,-0.0848485,308,-45.1171
0.0617,-0.0832323,308.5,-45.8622
0.0618,-0.0892929,309,-45.2986
0.0619,-0.080404,309.5,-45.6655
0.062,-0.0844444,310,-49.1229
0.0621,-0.0925253,310.5,-51.0475
0.0622,-0.0961616,311,-52.1193
0.0623,-0.090101,311.5,-53.6041
0.0624,-0.107879,312,-56.1009
0.0625,-0.113535,312.5,-59.6987
0.0626,-0.112727,313,-55.7895
0.0627,-0.12,313.5,-54.056
0.0628,-0.130505,314,-54.69
0.0629,-0.125253,314.5,-53.5628
0.063,-0.120808,315,-51.2654
0.0631,-0.118788,315.5,-53.6681
0.0632,-0.0989899,316,-56.2872
0.0633,-0.100202,316.5,-53.4555
0.0634,-0.120808,317,-52.9962
0.0635,-0.120404,317.5,-58.3033
0.0636,-0.121616,318,-60
0.0637,-0.120404,318.5,-60
0.0638,-0.121212,319,-60
0.0639,-0.120808,319.5,-51.4927
0.064,-0.116768,320,-47.4259
0.0641,-0.11798,320.5,-45.641
0.0642,-0.130505,321,-44.952
0.0643,-0.13697,321.5,-44.87
0.0644,-0.122424,322,-44.4711
0.0645,-0.146667,322.5,-45.536
0.0646,-0.144242,323,-46.9163
0.0647,-0.146667,323.5,-47.9922
0.0648,-0.132929,324,-47.6694
0.0649,-0.128485,324.5,-46.9132
0.065,-0.157172,325,-47.1938
0.0651,-0.156364,325.5,-45.8824
0.0652,-0.160808,326,-45.0574
0.0653,-0.162828,326.5,-44.2828
0.0654,-0.186667,327,-43.4264
0.0655,-0.164444,327.5,-42.6412
0.0656,-0.182222,328,-43.7822
0.0657,-0.170909,328.5,-43.3134
0.0658,-0.16,329,-43.1645
0.0659,-0.187879,329.5,-44.824
0.066,-0.201616,330,-48.4758
0.0661,-0.20202,330.5,-51.9405
0.0662,-0.201212,331,-51.2125
0.0663,-0.203232,331.5,-48.9736
0.0664,-0.204444,332,-46.5968
0.0665,-0.226667,332.5,-46.8517
0.0666,-0.22101,333,-46.4938
0.0667,-0.206869,333.5,-44.0525
0.0668,-0.203636,334,-43.0503
0.0669,-0.20202,334.5,-42.6297
0.067,-0.206061,335,-42.1618
0.0671,-0.20202,335.5,-43.2075
0.0672,-0.200404,336,-43.5278
0.0673,-0.201212,336.5,-42.2472
0.0674,-0.201616,337,-41.6366
0.0675,-0.188687,337.5,-42.488
0.0676,-0.193939,338,-44.0137
0.0677,-0.17899,338.5,-45.1011
0.0678,-0.190303,339,-45.7123
0.0679,-0.197576,339.5,-45.6141
0.068,-0.20202,340,-45.2796
0.0681,-0.201616,340.5,-46.6484
0.0682,-0.187879,341,-49.4286
0.0683,-0.181818,341.5,-54.6047
0.0684,-0.198788,342,-52.3581
0.0685,-0.186667,342.5,-59.3554
0.0686,-0.200404,343,-58.161
0.0687,-0.192323,343.5,-53.9759
0.0688,-0.168081,344,-51.6649
0.0689,-0.164848,344.5,-53.6458
0.069,-0.141818,345,-55.3704
0.0691,-0.128889,345.5,-55.5439
0.0692,-0.126061,346,-52.1164
0.0693,-0.122828,346.5,-48.1519
0.0694,-0.144242,347,-44.8849
0.0695,-0.130101,347.5,-43.6497
0.0696,-0.145455,348,-43.7409
0.0697,-0.159596,348.5,-43.027
0.0698,-0.132525,349,-42.9801
0.0699,-0.151515,349.5,-43.8602
0.07,-0.131313,350,-46.3717
0.0701,-0.141818,350.5,-49.4107
0.0702,-0.143838,351,-53.4713
0.0703,-0.124444,351.5,-52.4371
0.0704,-0.121212,352,-51.41
0.0705,-0.111111,352.5,-50.6933
0.0706,-0.112727,353,-50.615
0.0707,-0.0945455,353.5,-52.8947
0.0708,-0.113939,354,-56.7366
0.0709,-0.120808,354.5,-55.309
0.071,-0.113131,355,-53.0308
0.0711,-0.0832323,355.5,-52.067
0.0712,-0.0622222,356,-51.4276
0.0713,-0.04,356.5,-50.3978
0.0714,-0.00686869,357,-48.0125
0.0715,-0.00888889,357.5,-46.7978
0.0716,0.00565657,358,-46.7606
0.0717,0.0040404,358.5,-46.8927
0.0718,0.0206061,359,-47.3696
0.0719,0.0294949,359.5,-49.9142
0.072,0.0121212,360,-53.0396
0.0721,0.00808081,360.5,-54.1991
0.0722,-0.0020202,361,-56.3086
0.0723,-0.00282828,361.5,-57.2084
0.0724,0.00929293,362,-57.4385
0.0725,0.00323232,362.5,-54.8533
0.0726,-0.0145455,363,-57.0049
0.0727,-0.0355556,363.5,-56.2836
0.0728,-0.0327273,364,-54.3678
0.0729,-0.0137374,364.5,-52.2904
0.073,-0.0347475,365,-53.8329
0.0731,-0.039596,365.5,-54.9667
0.0732,-0.0270707,366,-52.0714
0.0733,-0.040404,366.5,-52.9909
0.0734,-0.0460606,367,-60
0.0735,-0.0751515,367.5,-60
0.0736,-0.0747475,368,-53.7535
0.0737,-0.0573737,368.5,-52.0128
0.0738,-0.0428283,369,-52.0383
0.0739,-0.060202,369.5,-50.9764
0.074,-0.0678788,370,-49.6339
0.0741,-0.0783838,370.5,-49.3543
0.0742,-0.0630303,371,-50.2117
0.0743,-0.0767677,371.5,-54.1797
0.0744,-0.0856566,372,-53.0079
0.0745,-0.105859,372.5,-49.2333
0.0746,-0.11798,373,-49.3726
0.0747,-0.117172,373.5,-51.4716
0.0748,-0.121212,374,-55.7164
0.0749,-0.120808,374.5,-57.0124
0.075,-0.120808,375,-56.6272
0.0751,-0.121616,375.5,-57.4537
0.0752,-0.122828,376,-57.2968
0.0753,-0.129697,376.5,-56.3791
0.0754,-0.121616,377,-57.5706
0.0755,-0.149495,377.5,-57.7868
0.0756,-0.153131,378,-58.3228
0.0757,-0.126869,378.5,-54.4237
0.0758,-0.153939,379,-52.0794
0.0759,-0.149495,379.5,-54.7748
0.076,-0.134545,380,-57.1825
0.0761,-0.125253,380.5,-57.5573
0.0762,-0.124848,381,-56.428
0.0763,-0.138182,381.5,-54.2994
0.0764,-0.147879,382,-53.5956
0.0765,-0.138182,382.5,-51.2796
0.0766,-0.157172,383,-49.4399
0.0767,-0.134949,383.5,-48.6773
0.0768,-0.121616,384,-50.5588
0.0769,-0.12404,384.5,-50.5443
0.077,-0.141818,385,-50.4206
0.0771,-0.150303,385.5,-51.5637
0.0772,-0.15596,386,-50.9201
0.0773,-0.146263,386.5,-49.6473
0.0774,-0.158788,387,-49.1412
0.0775,-0.134141,387.5,-51.363
0.0776,-0.147071,388,-55.8953
0.0777,-0.159192,388.5,-60
0.0778,-0.201616,389,-60
0.0779,-0.20202,389.5,-60
0.078,-0.203232,390,-56.864
0.0781,-0.206061,390.5,-57.8161
0.0782,-0.215354,391,-58.2004
0.0783,-0.201616,391.5,-53.0407
0.0784,-0.20202,392,-53.5202
0.0785,-0.20202,392.5,-55.3409
0.0786,-0.203232,393,-56.0951
0.0787,-0.204444,393.5,-60
0.0788,-0.204444,394,-59.7534
0.0789,-0.202828,394.5,-58.5176
0.079,-0.20202,395,-57.7579
0.0791,-0.201616,395.5,-57.9157
0.0792,-0.176566,396,-58.9192
0.0793,-0.166061,396.5,-57.8481
0.0794,-0.168485,397,-54.1451
0.0795,-0.174949,397.5,-56.7596
0.0796,-0.201616,398,-60
0.0797,-0.19798,398.5,-60
0.0798,-0.193535,399,-59.1274
0.0799,-0.200808,399.5,-55.8699
0.08,-0.177778,400,-54.6766
0.0801,-0.110303,400.5,-55.8421
0.0802,-0.0844444,401,-54.4758
0.0803,-0.0828283,401.5,-52.5844
0.0804,-0.0812121,402,-52.3002
0.0805,-0.0892929,402.5,-52.4735
0.0806,-0.121212,403,-51.5954
0.0807,-0.112727,403.5,-51.7545
0.0808,-0.118384,404,-53.4676
0.0809,-0.110303,404.5,-56.0367
0.081,-0.11798,405,-58.0397
0.0811,-0.0945455,405.5,-55.3321
0.0812,-0.089697,406,-53.0744
0.0813,-0.118384,406.5,-53.357
0.0814,-0.122424,407,-49.3723
0.0815,-0.121212,407.5,-47.7897
0.0816,-0.121212,408,-50.5063
0.0817,-0.117172,408.5,-53.5537
0.0818,-0.113131,409,-51.9287
0.0819,-0.0864646,409.5,-52.262
0.082,-0.0840404,410,-55.2219
0.0821,-0.10303,410.5,-59.5314
0.0822,-0.120404,411,-60
0.0823,-0.121212,411.5,-58.3456
0.0824,-0.120808,412,-56.4144
0.0825,-0.116364,412.5,-55.9197
0.0826,-0.110303,413,-52.0394
0.0827,-0.119192,413.5,-47.7586
0.0828,-0.0880808,414,-46.515
0.0829,-0.102222,414.5,-45.82
0.083,-0.116768,415,-45.6053
0.0831,-0.11798,415.5,-45.2742
0.0832,-0.112323,416,-44.7407
0.0833,-0.104242,416.5,-45.6422
0.0834,-0.0977778,417,-47.9772
0.0835,-0.104242,417.5,-49.278
0.0836,-0.117576,418,-50.2057
0.0837,-0.123232,418.5,-54.3558
0.0838,-0.125657,419,-60
0.0839,-0.134141,419.5,-60
0.084,-0.123636,420,-55.5985
0.0841,-0.121212,420.5,-52.2149
0.0842,-0.12202,421,-50.4098
0.0843,-0.124444,421.5,-51.9324
0.0844,-0.12404,422,-52.4862
0.0845,-0.120808,422.5,-52.0971
0.0846,-0.122424,423,-53.0354
0.0847,-0.120404,423.5,-52.9212
0.0848,-0.119596,424,-52.865
0.0849,-0.119596,424.5,-54.7271
0.085,-0.129293,425,-58.4017
0.0851,-0.12404,425.5,-60
0.0852,-0.118384,426,-60
0.0853,-0.12202,426.5,-60
0.0854,-0.123232,427,-53.2725
0.0855,-0.150303,427.5,-50.5307
0.0856,-0.12202,428,-50.043
0.0857,-0.14303,428.5,-50.3674
0.0858,-0.159596,429,-52.9159
0.0859,-0.164444,429.5,-60
0.086,-0.164444,430,-60
0.0861,-0.166869,430.5,-60
0.0862,-0.162424,431,-54.863
0.0863,-0.166465,431.5,-52.4597
0.0864,-0.194343,432,-51.9587
0.0865,-0.180202,432.5,-53.1944
0.0866,-0.158384,433,-55.0378
0.0867,-0.139798,433.5,-60
0.0868,-0.145455,434,-60
0.0869,-0.128081,434.5,-59.0036
0.087,-0.145859,435,-58.5577
0.0871,-0.156364,435.5,-59.6363
0.0872,-0.154747,436,-58.2329
0.0873,-0.159192,436.5,-56.2101
0.0874,-0.127273,437,-60
0.0875,-0.144242,437.5,-55.727
0.0876,-0.130101,438,-52.3729
0.0877,-0.119192,438.5,-51.2422
0.0878,-0.120808,439,-51.3571
0.0879,-0.118788,439.5,-50.5866
0.088,-0.126061,440,-50.2146
0.0881,-0.145859,440.5,-49.7745
0.0882,-0.141414,441,-52.0532
0.0883,-0.137778,441.5,-53.5078
0.0884,-0.139394,442,-55.9243
0.0885,-0.13899,442.5,-56.0667
0.0886,-0.12404,443,-56.0558
0.0887,-0.140606,443.5,-54.7723
0.0888,-0.148687,444,-52.616
0.0889,-0.144242,444.5,-51.1308
0.089,-0.122424,445,-50.9407
0.0891,-0.121616,445.5,-50.4181
0.0892,-0.120404,446,-51.3892
0.0893,-0.11798,446.5,-52.8158
0.0894,-0.121212,447,-53.9636
0.0895,-0.127273,447.5,-55.4451
0.0896,-0.11596,448,-55.7965
0.0897,-0.11596,448.5,-56.6109
0.0898,-0.121616,449,-57.7101
0.0899,-0.121212,449.5,-56.6167
0.09,-0.12,450,-56.2945
0.0901,-0.11798,450.5,-59.6087
0.0902,-0.118384,451,-58.1394
0.0903,-0.14303,451.5,-57.6377
0.0904,-0.122424,452,-60
0.0905,-0.123636,452.5,-60
0.0906,-0.128485,453,-56.8857
0.0907,-0.12404,453.5,-55.368
0.0908,-0.108283,454,-57.4758
0.0909,-0.108687,454.5,-60
0.091,-0.120808,455,-60
0.0911,-0.121212,455.5,-60
0.0912,-0.123636,456,-60
0.0913,-0.141818,456.5,-60
0.0914,-0.143838,457,-60
0.0915,-0.164848,457.5,-58.7619
0.0916,-0.147879,458,-56.1673
0.0917,-0.133333,458.5,-55.4484
0.0918,-0.12202,459,-58.4261
0.0919,-0.143434,459.5,-58.5817
0.092,-0.125253,460,-58.4211
0.0921,-0.156364,460.5,-56.9898
0.0922,-0.158788,461,-58.5247
0.0923,-0.142222,461.5,-58.392
0.0924,-0.126061,462,-56.2906
0.0925,-0.132121,462.5,-55.0187
0.0926,-0.131717,463,-53.7371
0.0927,-0.131313,463.5,-52.586
0.0928,-0.123636,464,-52.5561
0.0929,-0.12,464.5,-54.6083
0.093,-0.121212,465,-55.8124
0.0931,-0.121212,465.5,-57.7241
0.0932,-0.120808,466,-57.9843
0.0933,-0.119192,466.5,-59.6218
0.0934,-0.120808,467,-60
0.0935,-0.121212,467.5,-57.1863
0.0936,-0.108687,468,-55.6848
0.0937,-0.0981818,468.5,-55.292
0.0938,-0.120808,469,-54.4596
0.0939,-0.120808,469.5,-54.3717
0.094,-0.12,470,-52.8349
0.0941,-0.119596,470.5,-53.1544
0.0942,-0.121212,471,-53.9484
0.0943,-0.120404,471.5,-55.5675
0.0944,-0.119596,472,-57.7507
0.0945,-0.109899,472.5,-58.6336
0.0946,-0.0985859,473,-59.2748
0.0947,-0.119596,473.5,-55.9098
0.0948,-0.120808,474,-53.4266
0.0949,-0.122424,474.5,-52.8746
0.095,-0.13899,475,-52.6055
0.0951,-0.131313,475.5,-52.3388
0.0952,-0.144242,476,-50.5267
0.0953,-0.122828,476.5,-50.9526
0.0954,-0.121616,477,-53.0859
0.0955,-0.118384,477.5,-54.2601
0.0956,-0.120808,478,-52.6063
0.0957,-0.121212,478.5,-56.5126
0.0958,-0.120808,479,-56.1988
0.0959,-0.115556,479.5,-58.8099
0.096,-0.116768,480,-60
0.0961,-0.110303,480.5,-60
0.0962,-0.089697,481,-60
0.0963,-0.0957576,481.5,-60
0.0964,-0.0937374,482,-60
0.0965,-0.0961616,482.5,-60
0.0966,-0.0856566,483,-57.6473
0.0967,-0.104646,483.5,-56.7424
0.0968,-0.0852525,484,-57.7101
0.0969,-0.0812121,484.5,-60
0.097,-0.0941414,485,-60
0.0971,-0.114343,485.5,-60
0.0972,-0.116364,486,-60
0.0973,-0.119192,486.5,-60
0.0974,-0.118788,487,-60
0.0975,-0.118384,487.5,-60
0.0976,-0.114343,488,-60
0.0977,-0.120808,488.5,-60
0.0978,-0.119596,489,-60
0.0979,-0.12202,489.5,-60
0.098,-0.121212,490,-60
0.0981,-0.121212,490.5,-60
0.0982,-0.123232,491,-60
0.0983,-0.123232,491.5,-56.5228
0.0984,-0.121212,492,-54.7023
0.0985,-0.125657,492.5,-54.3562
0.0986,-0.129697,493,-53.214
0.0987,-0.122424,493.5,-52.2964
0.0988,-0.122828,494,-53.3416
0.0989,-0.137374,494.5,-53.647
0.099,-0.140606,495,-57.4534
0.0991,-0.122424,495.5,-60
0.0992,-0.119596,496,-60
0.0993,-0.117172,496.5,-60
0.0994,-0.120808,497,-60
0.0995,-0.121212,497.5,-57.5066
0.0996,-0.120404,498,-54.0674
0.0997,-0.110303,498.5,-53.0436
0.0998,-0.112323,499,-52.1386
0.0999,-0.121212,499.5,-54.8592
0.1,-0.121212,500,-55.6914
0.1001,-0.106263,500.5,-54.3495
0.1002,-0.0989899,501,-55.6299
0.1003,-0.114747,501.5,-56.6534
0.1004,-0.0917172,502,-56.0506
0.1005,-0.106263,502.5,-53.909
0.1006,-0.089697,503,-52.4909
0.1007,-0.100606,503.5,-53.8323
0.1008,-0.0937374,504,-54.4567
0.1009,-0.0852525,504.5,-53.645
0.101,-0.0961616,505,-54.7992
0.1011,-0.0969697,505.5,-56.5915
0.1012,-0.0884848,506,-59.1151
0.1013,-0.11596,506.5,-60
0.1014,-0.0993939,507,-60
0.1015,-0.12202,507.5,-58.1162
0.1016,-0.120808,508,-58.4731
0.1017,-0.122828,508.5,-57.8425
0.1018,-0.130101,509,-56.4594
0.1019,-0.13899,509.5,-55.4198
0.102,-0.134949,510,-53.0975
0.1021,-0.126465,510.5,-53.9551
0.1022,-0.118788,511,-54.3689
0.1023,-0.121616,511.5,-55.3454
0.1024,-0.120808,512,-58.7808
0.1025,-0.126061,512.5,-59.2112
0.1026,-0.125657,513,-56.6815
0.1027,-0.122828,513.5,-56.3207
0.1028,-0.124848,514,-57.6579
0.1029,-0.130505,514.5,-58.3215
0.103,-0.13697,515,-59.4995
0.1031,-0.128485,515.5,-59.4627
0.1032,-0.149091,516,-60
0.1033,-0.155556,516.5,-60
0.1034,-0.16404,517,-60
0.1035,-0.168081,517.5,-58.0911
0.1036,-0.165657,518,-55.2483
0.1037,-0.170101,518.5,-55.0309
0.1038,-0.160808,519,-55.3056
0.1039,-0.190707,519.5,-55.8018
0.104,-0.182222,520,-56.1387
0.1041,-0.174949,520.5,-60
0.1042,-0.200404,521,-58.9785
0.1043,-0.201212,521.5,-57.1216
0.1044,-0.2,522,-57.0765
0.1045,-0.188687,522.5,-60
0.1046,-0.193131,523,-60
0.1047,-0.189899,523.5,-60
0.1048,-0.186667,524,-60
0.1049,-0.176566,524.5,-59.6293
0.105,-0.166465,525,-54.7748
0.1051,-0.180606,525.5,-53.2759
0.1052,-0.168889,526,-53.5303
0.1053,-0.156768,526.5,-55.1747
0.1054,-0.152727,527,-58.3431
0.1055,-0.16404,527.5,-57.1664
0.1056,-0.155152,528,-54.7683
0.1057,-0.150707,528.5,-57.2143
0.1058,-0.148283,529,-60
0.1059,-0.122828,529.5,-56.7193
0.106,-0.121212,530,-56.6953
0.1061,-0.113131,530.5,-58.1951
0.1062,-0.108283,531,-55.9
0.1063,-0.103838,531.5,-54.9375
0.1064,-0.0820202,532,-52.8514
0.1065,-0.106667,532.5,-51.4009
0.1066,-0.102626,533,-51.5902
0.1067,-0.0848485,533.5,-53.2846
0.1068,-0.11798,534,-53.9539
0.1069,-0.122828,534.5,-54.9386
0.107,-0.126465,535,-55.7689
0.1071,-0.129293,535.5,-57.0225
0.1072,-0.133737,536,-57.2593
0.1073,-0.130505,536.5,-57.9406
0.1074,-0.138586,537,-60
0.1075,-0.123232,537.5,-60
0.1076,-0.121212,538,-60
0.1077,-0.121212,538.5,-60
0.1078,-0.11798,539,-60
0.1079,-0.125253,539.5,-60
0.108,-0.124848,540,-60
0.1081,-0.102222,540.5,-60
0.1082,-0.0937374,541,-57.447
0.1083,-0.0840404,541.5,-56.3796
0.1084,-0.0808081,542,-55.5234
0.1085,-0.079596,542.5,-53.3202
0.1086,-0.080404,543,-52.1293
0.1087,-0.0783838,543.5,-52.9313
0.1088,-0.0581818,544,-52.8137
0.1089,-0.0791919,544.5,-53.7341
0.109,-0.0480808,545,-56.0854
0.1091,-0.059798,545.5,-56.5986
0.1092,-0.0723232,546,-56.8176
0.1093,-0.0880808,546.5,-59.4412
0.1094,-0.0957576,547,-60
0.1095,-0.089697,547.5,-60
0.1096,-0.080404,548,-60
0.1097,-0.0662626,548.5,-60
0.1098,-0.0484848,549,-60
0.1099,-0.0440404,549.5,-59.4997
0.11,-0.0428283,550,-57.4317
0.1101,-0.0432323,550.5,-56.882
0.1102,-0.0513131,551,-58.0941
0.1103,-0.0460606,551.5,-58.0981
0.1104,-0.0412121,552,-54.84
0.1105,-0.0505051,552.5,-54.5804
0.1106,-0.0650505,553,-58.5115
0.1107,-0.0569697,553.5,-59.3368
0.1108,-0.0569697,554,-57.9491
0.1109,-0.0771717,554.5,-60
0.111,-0.079596,555,-59.3335
0.1111,-0.101818,555.5,-59.8414
0.1112,-0.109899,556,-60
0.1113,-0.0824242,556.5,-56.9633
0.1114,-0.100606,557,-60
0.1115,-0.0993939,557.5,-56.0524
0.1116,-0.11798,558,-53.0794
0.1117,-0.121212,558.5,-53.0549
0.1118,-0.121616,559,-52.5622
0.1119,-0.106667,559.5,-54.1366
0.112,-0.120808,560,-55.7874
0.1121,-0.12202,560.5,-57.5182
0.1122,-0.110303,561,-57.6052
0.1123,-0.107071,561.5,-60
0.1124,-0.106667,562,-60
0.1125,-0.0925253,562.5,-60
0.1126,-0.0844444,563,-59.9582
0.1127,-0.0989899,563.5,-56.6058
0.1128,-0.107071,564,-55.6624
0.1129,-0.102626,564.5,-55.6311
0.113,-0.116364,565,-55.4173
0.1131,-0.118384,565.5,-54.6993
0.1132,-0.103838,566,-52.3497
0.1133,-0.0880808,566.5,-53.6393
0.1134,-0.0820202,567,-59.2961
0.1135,-0.080404,567.5,-58.109
0.1136,-0.070303,568,-60
0.1137,-0.0856566,568.5,-60
0.1138,-0.0759596,569,-60
0.1139,-0.0739394,569.5,-58.4108
0.114,-0.0808081,570,-57.3094
0.1141,-0.0634343,570.5,-54.5732
0.1142,-0.0412121,571,-53.3984
0.1143,-0.0424242,571.5,-54.7969
0.1144,-0.04,572,-54.4874
0.1145,-0.04,572.5,-54.2959
0.1146,-0.0412121,573,-53.3939
0.1147,-0.0557576,573.5,-53.1111
0.1148,-0.050101,574,-53.1667
0.1149,-0.0585859,574.5,-53.3152
0.115,-0.0832323,575,-54.787
0.1151,-0.080404,575.5,-54.5917
0.1152,-0.0941414,576,-50.7131
0.1153,-0.109899,576.5,-52.7884
0.1154,-0.113131,577,-56.6974
0.1155,-0.111919,577.5,-56.8971
0.1156,-0.121212,578,-58.8202
0.1157,-0.122828,578.5,-58.8173
0.1158,-0.132929,579,-59.5931
0.1159,-0.125657,579.5,-60
0.116,-0.12202,580,-60
0.1161,-0.133333,580.5,-58.0027
0.1162,-0.14101,581,-58.9744
0.1163,-0.156364,581.5,-59.6401
0.1164,-0.143434,582,-59.924
0.1165,-0.132929,582.5,-60
0.1166,-0.153131,583,-60
0.1167,-0.161212,583.5,-60
0.1168,-0.138182,584,-59.4043
0.1169,-0.157576,584.5,-58.3327
0.117,-0.150303,585,-57.891
0.1171,-0.140202,585.5,-55.7789
0.1172,-0.119192,586,-54.8835
0.1173,-0.12202,586.5,-58.1645
0.1174,-0.144242,587,-60
0.1175,-0.145051,587.5,-60
0.1176,-0.121616,588,-60
0.1177,-0.127677,588.5,-60
0.1178,-0.12404,589,-60
0.1179,-0.121212,589.5,-58.3927
0.118,-0.122424,590,-56.4264
0.1181,-0.11798,590.5,-54.9738
0.1182,-0.118788,591,-55.9101
0.1183,-0.123232,591.5,-55.1997
0.1184,-0.146667,592,-53.5046
0.1185,-0.134949,592.5,-52.9133
0.1186,-0.120808,593,-52.3282
0.1187,-0.120808,593.5,-54.0014
0.1188,-0.121212,594,-54.8859
0.1189,-0.120404,594.5,-55.2074
0.119,-0.121212,595,-58.7116
0.1191,-0.119596,595.5,-60
0.1192,-0.118788,596,-60
0.1193,-0.121212,596.5,-60
0.1194,-0.121212,597,-60
0.1195,-0.115556,597.5,-57.7531
0.1196,-0.108687,598,-55.83
0.1197,-0.121212,598.5,-54.0977
0.1198,-0.116364,599,-53.3761
0.1199,-0.119596,599.5,-53.1528
0.12,-0.109091,600,-54.1478
0.1201,-0.111919,600.5,-54.568
0.1202,-0.118788,601,-55.5287
0.1203,-0.113535,601.5,-56.4884
0.1204,-0.112727,602,-59.2826
0.1205,-0.113535,602.5,-60
0.1206,-0.116364,603,-60
0.1207,-0.0832323,603.5,-60
0.1208,-0.0929293,604,-60
0.1209,-0.0981818,604.5,-59.6296
0.121,-0.120808,605,-58.3985
0.1211,-0.120404,605.5,-57.9621
0.1212,-0.12,606,-55.7731
0.1213,-0.0925253,606.5,-54.3225
0.1214,-0.0937374,607,-53.0297
0.1215,-0.121212,607.5,-52.703
0.1216,-0.116364,608,-52.1936
0.1217,-0.130505,608.5,-53.509
0.1218,-0.124444,609,-56.0128
0.1219,-0.126465,609.5,-57.9661
0.122,-0.136162,610,-60
0.1221,-0.122424,610.5,-60
0.1222,-0.120808,611,-60
0.1223,-0.119192,611.5,-60
0.1224,-0.121212,612,-60
0.1225,-0.108283,612.5,-60
0.1226,-0.10303,613,-60
0.1227,-0.120808,613.5,-60
0.1228,-0.123636,614,-60
0.1229,-0.121616,614.5,-56.4044
0.123,-0.120808,615,-52.9056
0.1231,-0.121212,615.5,-53.1189
0.1232,-0.129293,616,-54.4757
0.1233,-0.13697,616.5,-54.6046
0.1234,-0.182222,617,-53.9877
0.1235,-0.191515,617.5,-53.7516
0.1236,-0.165253,618,-54.987
0.1237,-0.154747,618.5,-55.2805
0.1238,-0.128889,619,-53.9075
0.1239,-0.124444,619.5,-55.4803
0.124,-0.126869,620,-60
0.1241,-0.121212,620.5,-59.7636
0.1242,-0.119192,621,-59.2245
0.1243,-0.104646,621.5,-59.4735
0.1244,-0.102222,622,-59.8093
0.1245,-0.117172,622.5,-58.9372
0.1246,-0.118788,623,-59.0946
0.1247,-0.119596,623.5,-59.4686
0.1248,-0.116364,624,-60
0.1249,-0.120808,624.5,-59.2302
0.125,-0.121212,625,-59.0181
0.1251,-0.122828,625.5,-60
0.1252,-0.123636,626,-60
0.1253,-0.12202,626.5,-60
0.1254,-0.120808,627,-60
0.1255,-0.12202,627.5,-59.6988
0.1256,-0.130505,628,-58.1983
0.1257,-0.14101,628.5,-58.3121
0.1258,-0.128081,629,-60
0.1259,-0.128081,629.5,-60
0.126,-0.130505,630,-59.1727
0.1261,-0.121616,630.5,-58.9097
0.1262,-0.122828,631,-60
0.1263,-0.123232,631.5,-60
0.1264,-0.121212,632,-60
0.1265,-0.121212,632.5,-60
0.1266,-0.12202,633,-60
0.1267,-0.125657,633.5,-60
0.1268,-0.137374,634,-60
0.1269,-0.12404,634.5,-60
0.127,-0.146667,635,-60
0.1271,-0.143838,635.5,-60
0.1272,-0.132121,636,-60
0.1273,-0.136162,636.5,-60
0.1274,-0.133333,637,-58.6826
0.1275,-0.170505,637.5,-58.094
0.1276,-0.173737,638,-60
0.1277,-0.16202,638.5,-60
0.1278,-0.148283,639,-59.1524
0.1279,-0.155152,639.5,-60
0.128,-0.168889,640,-60
0.1281,-0.175758,640.5,-60
0.1282,-0.201212,641,-60
0.1283,-0.2,641.5,-60
0.1284,-0.202828,642,-60
0.1285,-0.206465,642.5,-60
0.1286,-0.201616,643,-60
0.1287,-0.20202,643.5,-60
0.1288,-0.194747,644,-60
0.1289,-0.196364,644.5,-60
0.129,-0.196768,645,-60
0.1291,-0.201616,645.5,-60
0.1292,-0.195152,646,-60
0.1293,-0.20202,646.5,-60
0.1294,-0.200404,647,-58.0062
0.1295,-0.202424,647.5,-59.3764
0.1296,-0.201616,648,-59.2586
0.1297,-0.200404,648.5,-60
0.1298,-0.183434,649,-60
0.1299,-0.195556,649.5,-60
0.13,-0.170909,650,-59.6299
0.1301,-0.146667,650.5,-60
0.1302,-0.12202,651,-60
0.1303,-0.120808,651.5,-59.8402
0.1304,-0.114343,652,-57.3468
0.1305,-0.105051,652.5,-57.5271
0.1306,-0.0816162,653,-58.6287
0.1307,-0.0759596,653.5,-60
0.1308,-0.0569697,654,-60
0.1309,-0.0553535,654.5,-60
0.131,-0.040404,655,-60
0.1311,-0.0408081,655.5,-60
0.1312,-0.0420202,656,-60
0.1313,-0.0666667,656.5,-60
0.1314,-0.0828283,657,-60
0.1315,-0.0828283,657.5,-60
0.1316,-0.0868687,658,-60
0.1317,-0.113535,658.5,-59.8582
0.1318,-0.123636,659,-58.3545
0.1319,-0.121212,659.5,-56.7311
0.132,-0.113131,660,-55.7472
0.1321,-0.11798,660.5,-56.0062
0.1322,-0.101414,661,-57.1114
0.1323,-0.107071,661.5,-57.5155
0.1324,-0.121212,662,-60
0.1325,-0.119192,662.5,-60
0.1326,-0.119596,663,-60
0.1327,-0.128889,663.5,-60
0.1328,-0.121616,664,-60
0.1329,-0.122828,664.5,-60
0.133,-0.121616,665,-60
0.1331,-0.132525,665.5,-60
0.1332,-0.144646,666,-60
0.1333,-0.139798,666.5,-60
0.1334,-0.120808,667,-59.4042
0.1335,-0.124848,667.5,-60
0.1336,-0.120808,668,-60
0.1337,-0.12,668.5,-60
0.1338,-0.12,669,-60
0.1339,-0.118384,669.5,-60
0.134,-0.109899,670,-60
0.1341,-0.115152,670.5,-60
0.1342,-0.0941414,671,-60
0.1343,-0.0812121,671.5,-60
0.1344,-0.089697,672,-59.3509
0.1345,-0.108283,672.5,-58.1171
0.1346,-0.115556,673,-59.3335
0.1347,-0.104242,673.5,-60
0.1348,-0.0961616,674,-59.5579
0.1349,-0.0937374,674.5,-60
0.135,-0.106667,675,-60
0.1351,-0.0917172,675.5,-60
0.1352,-0.0840404,676,-60
0.1353,-0.101414,676.5,-60
0.1354,-0.122424,677,-60
0.1355,-0.121212,677.5,-60
0.1356,-0.124444,678,-60
0.1357,-0.124444,678.5,-60
0.1358,-0.123232,679,-60
0.1359,-0.130909,679.5,-60
0.136,-0.152323,680,-60
0.1361,-0.145859,680.5,-60
0.1362,-0.131717,681,-58.6066
0.1363,-0.121616,681.5,-60
0.1364,-0.128081,682,-59.5342
0.1365,-0.132525,682.5,-59.115
0.1366,-0.145051,683,-60
0.1367,-0.155556,683.5,-56.9933
0.1368,-0.15798,684,-56.7182
0.1369,-0.153131,684.5,-60
0.137,-0.129293,685,-60
0.1371,-0.111515,685.5,-60
0.1372,-0.113535,686,-60
0.1373,-0.0973737,686.5,-60
0.1374,-0.089697,687,-60
0.1375,-0.0743434,687.5,-60
0.1376,-0.0747475,688,-60
0.1377,-0.0456566,688.5,-60
0.1378,-0.0416162,689,-60
0.1379,-0.04,689.5,-60
0.138,-0.0408081,690,-60
0.1381,-0.0408081,690.5,-60
0.1382,-0.040404,691,-60
0.1383,-0.0577778,691.5,-60
0.1384,-0.0820202,692,-60
0.1385,-0.0909091,692.5,-60
0.1386,-0.105859,693,-60
0.1387,-0.0989899,693.5,-60
0.1388,-0.0848485,694,-60
0.1389,-0.116364,694.5,-60
0.139,-0.12,695,-60
0.1391,-0.123232,695.5,-60
0.1392,-0.122828,696,-60
0.1393,-0.139798,696.5,-60
0.1394,-0.142626,697,-60
0.1395,-0.145051,697.5,-60
0.1396,-0.12404,698,-59.9922
0.1397,-0.121212,698.5,-60
0.1398,-0.12404,699,-60
0.1399,-0.12,699.5,-60
0.14,-0.111919,700,-60
0.1401,-0.0828283,700.5,-60
0.1402,-0.0888889,701,-60
0.1403,-0.108283,701.5,-58.6634
0.1404,-0.121212,702,-60
0.1405,-0.127273,702.5,-60
0.1406,-0.140606,703,-60
0.1407,-0.120404,703.5,-60
0.1408,-0.115152,704,-60
0.1409,-0.113535,704.5,-60
0.141,-0.122424,705,-60
0.1411,-0.139798,705.5,-60
0.1412,-0.128081,706,-60
0.1413,-0.12404,706.5,-58.9466
0.1414,-0.126869,707,-59.3362
0.1415,-0.12202,707.5,-60
0.1416,-0.121212,708,-59.9822
0.1417,-0.125657,708.5,-60
0.1418,-0.134141,709,-60
0.1419,-0.12404,709.5,-60
0.142,-0.141818,710,-60
0.1421,-0.123636,710.5,-60
0.1422,-0.122828,711,-60
0.1423,-0.125657,711.5,-60
0.1424,-0.15798,712,-60
0.1425,-0.166869,712.5,-60
0.1426,-0.182222,713,-58.7116
0.1427,-0.159192,713.5,-60
0.1428,-0.140606,714,-60
0.1429,-0.144646,714.5,-60
0.143,-0.149899,715,-58.458
0.1431,-0.141818,715.5,-58.3894
0.1432,-0.16404,716,-59.9165
0.1433,-0.187071,716.5,-60
0.1434,-0.174545,717,-60
0.1435,-0.172121,717.5,-60
0.1436,-0.178586,718,-59.6676
0.1437,-0.180606,718.5,-58.5818
0.1438,-0.180606,719,-60
0.1439,-0.165253,719.5,-60
0.144,-0.181414,720,-60
0.1441,-0.141414,720.5,-60
0.1442,-0.145455,721,-60
0.1443,-0.145455,721.5,-60
0.1444,-0.121616,722,-60
0.1445,-0.120808,722.5,-60
0.1446,-0.11596,723,-60
0.1447,-0.112727,723.5,-60
0.1448,-0.115152,724,-60
0.1449,-0.0973737,724.5,-60
0.145,-0.0961616,725,-60
0.1451,-0.0973737,725.5,-60
0.1452,-0.108687,726,-60
0.1453,-0.0812121,726.5,-60
0.1454,-0.0731313,727,-60
0.1455,-0.0654545,727.5,-60
0.1456,-0.0541414,728,-60
0.1457,-0.0408081,728.5,-60
0.1458,-0.0614141,729,-60
0.1459,-0.0646465,729.5,-60
0.146,-0.0662626,730,-60
0.1461,-0.060202,730.5,-60
0.1462,-0.0808081,731,-60
0.1463,-0.108687,731.5,-60
0.1464,-0.103838,732,-60
0.1465,-0.11596,732.5,-60
0.1466,-0.0985859,733,-60
0.1467,-0.101818,733.5,-60
0.1468,-0.0892929,734,-60
0.1469,-0.114747,734.5,-60
0.147,-0.121212,735,-60
0.1471,-0.119596,735.5,-60
0.1472,-0.103838,736,-60
0.1473,-0.105859,736.5,-60
0.1474,-0.121212,737,-60
0.1475,-0.108687,737.5,-60
0.1476,-0.120404,738,-60
0.1477,-0.111515,738.5,-60
0.1478,-0.122424,739,-60
0.1479,-0.105455,739.5,-60
0.148,-0.118788,740,-60
0.1481,-0.121616,740.5,-60
0.1482,-0.121212,741,-60
0.1483,-0.121212,741.5,-60
0.1484,-0.125657,742,-60
0.1485,-0.137778,742.5,-60
0.1486,-0.147071,743,-60
0.1487,-0.148687,743.5,-60
0.1488,-0.168889,744,-60
0.1489,-0.159596,744.5,-60
0.149,-0.141414,745,-60
0.1491,-0.147879,745.5,-59.2478
0.1492,-0.194343,746,-59.0929
0.1493,-0.189899,746.5,-60
0.1494,-0.174545,747,-60
0.1495,-0.189899,747.5,-60
0.1496,-0.195556,748,-60
0.1497,-0.191919,748.5,-60
0.1498,-0.20202,749,-59.1429
0.1499,-0.18303,749.5,-58.0926
0.15,-0.192323,750,-58.7054
0.1501,-0.189899,750.5,-60
0.1502,-0.181818,751,-60
0.1503,-0.184646,751.5,-60
0.1504,-0.185455,752,-60
0.1505,-0.197172,752.5,-60
0.1506,-0.186667,753,-60
0.1507,-0.172929,753.5,-59.8794
0.1508,-0.16202,754,-58.1144
0.1509,-0.144646,754.5,-58.1975
0.151,-0.135354,755,-59.3693
0.1511,-0.14303,755.5,-60
0.1512,-0.171717,756,-60
0.1513,-0.143838,756.5,-60
0.1514,-0.128485,757,-60
0.1515,-0.132121,757.5,-60
0.1516,-0.121212,758,-60
0.1517,-0.120404,758.5,-60
0.1518,-0.0933333,759,-60
0.1519,-0.0816162,759.5,-60
0.152,-0.0993939,760,-60
0.1521,-0.0820202,760.5,-58.47
0.1522,-0.0743434,761,-58.5697
0.1523,-0.0694949,761.5,-59.495
0.1524,-0.050101,762,-59.2586
0.1525,-0.0642424,762.5,-58.1868
0.1526,-0.0751515,763,-59.309
0.1527,-0.069899,763.5,-60
0.1528,-0.0549495,764,-60
0.1529,-0.0755556,764.5,-60
0.153,-0.0965657,765,-60
0.1531,-0.101818,765.5,-58.8899
0.1532,-0.111919,766,-57.8107
0.1533,-0.0836364,766.5,-57.4509
0.1534,-0.0783838,767,-57.0891
0.1535,-0.0707071,767.5,-58.2997
0.1536,-0.0791919,768,-60
0.1537,-0.0949495,768.5,-60
0.1538,-0.0989899,769,-60
0.1539,-0.0993939,769.5,-60
0.154,-0.106263,770,-59.3652
0.1541,-0.119192,770.5,-59.4651
0.1542,-0.116364,771,-60
0.1543,-0.107475,771.5,-60
0.1544,-0.116768,772,-60
0.1545,-0.121212,772.5,-60
0.1546,-0.117172,773,-60
0.1547,-0.12,773.5,-60
0.1548,-0.121616,774,-60
0.1549,-0.122424,774.5,-60
0.155,-0.136162,775,-60
0.1551,-0.163232,775.5,-58.7885
0.1552,-0.147071,776,-58.3638
0.1553,-0.147071,776.5,-59.5672
0.1554,-0.134949,777,-59.7977
0.1555,-0.121212,777.5,-60
0.1556,-0.136566,778,-60
0.1557,-0.144646,778.5,-60
0.1558,-0.133737,779,-60
0.1559,-0.121212,779.5,-60
0.156,-0.121616,780,-59.8919
0.1561,-0.12202,780.5,-60
0.1562,-0.12,781,-60
0.1563,-0.122828,781.5,-60
0.1564,-0.120808,782,-60
0.1565,-0.120808,782.5,-60
0.1566,-0.120404,783,-60
0.1567,-0.105455,783.5,-60
0.1568,-0.116364,784,-60
0.1569,-0.12,784.5,-60
0.157,-0.121212,785,-60
0.1571,-0.12202,785.5,-60
0.1572,-0.121212,786,-60
0.1573,-0.121212,786.5,-60
0.1574,-0.120404,787,-58.633
0.1575,-0.120404,787.5,-59.2315
0.1576,-0.113939,788,-60
0.1577,-0.111515,788.5,-60
0.1578,-0.12,789,-60
0.1579,-0.121212,789.5,-59.5865
0.158,-0.119192,790,-59.5911
0.1581,-0.120404,790.5,-60
0.1582,-0.120808,791,-60
0.1583,-0.120404,791.5,-60
0.1584,-0.117172,792,-59.6343
0.1585,-0.0981818,792.5,-55.8361
0.1586,-0.119596,793,-54.193
0.1587,-0.12202,793.5,-54.3418
0.1588,-0.123232,794,-55.1277
0.1589,-0.125657,794.5,-56.941
0.159,-0.142222,795,-57.9103
0.1591,-0.166061,795.5,-58.3407
0.1592,-0.177374,796,-58.5312
0.1593,-0.196768,796.5,-57.9843
0.1594,-0.200808,797,-59.6984
0.1595,-0.196364,797.5,-60
0.1596,-0.167273,798,-60
0.1597,-0.175354,798.5,-60
0.1598,-0.201212,799,-60
0.1599,-0.20202,799.5,-60
0.16,-0.201212,800,-60
0.1601,-0.204848,800.5,-60
0.1602,-0.20202,801,-59.649
0.1603,-0.20202,801.5,-57.571
0.1604,-0.200404,802,-58.2441
0.1605,-0.20202,802.5,-57.6196
0.1606,-0.201616,803,-57.1816
0.1607,-0.196364,803.5,-57.3381
0.1608,-0.201616,804,-57.6159
0.1609,-0.200404,804.5,-58.6224
0.161,-0.187475,805,-60
0.1611,-0.189899,805.5,-59.518
0.1612,-0.200808,806,-58.6677
0.1613,-0.190303,806.5,-60
0.1614,-0.201212,807,-60
0.1615,-0.192323,807.5,-60
0.1616,-0.165253,808,-60
0.1617,-0.13697,808.5,-60
0.1618,-0.124848,809,-60
0.1619,-0.124444,809.5,-60
0.162,-0.116768,810,-60
0.1621,-0.109899,810.5,-60
0.1622,-0.121212,811,-60
0.1623,-0.121212,811.5,-60
0.1624,-0.121212,812,-60
0.1625,-0.126869,812.5,-60
0.1626,-0.122828,813,-60
0.1627,-0.119192,813.5,-60
0.1628,-0.120808,814,-60
0.1629,-0.126465,814.5,-60
0.163,-0.126869,815,-60
0.1631,-0.152727,815.5,-60
0.1632,-0.151515,816,-60
0.1633,-0.158788,816.5,-60
0.1634,-0.159596,817,-60
0.1635,-0.15596,817.5,-60
0.1636,-0.136162,818,-60
0.1637,-0.128485,818.5,-60
0.1638,-0.122424,819,-60
0.1639,-0.121212,819.5,-60
0.164,-0.121212,820,-60
0.1641,-0.12404,820.5,-60
0.1642,-0.12202,821,-60
0.1643,-0.108283,821.5,-60
0.1644,-0.106263,822,-60
0.1645,-0.112727,822.5,-60
0.1646,-0.104646,823,-60
0.1647,-0.141414,823.5,-60
0.1648,-0.122828,824,-60
0.1649,-0.121616,824.5,-60
0.165,-0.121212,825,-60
0.1651,-0.121616,825.5,-60
0.1652,-0.124848,826,-60
0.1653,-0.133333,826.5,-60
0.1654,-0.132929,827,-60
0.1655,-0.136162,827.5,-60
0.1656,-0.144646,828,-60
0.1657,-0.144646,828.5,-60
0.1658,-0.141818,829,-60
0.1659,-0.124444,829.5,-60
0.166,-0.135354,830,-60
0.1661,-0.167273,830.5,-60
0.1662,-0.16,831,-60
0.1663,-0.139394,831.5,-60
0.1664,-0.159192,832,-60
0.1665,-0.159596,832.5,-60
0.1666,-0.156768,833,-60
0.1667,-0.15596,833.5,-60
0.1668,-0.145051,834,-60
0.1669,-0.154343,834.5,-60
0.167,-0.138586,835,-60
0.1671,-0.159192,835.5,-60
0.1672,-0.171313,836,-60
0.1673,-0.15798,836.5,-60
0.1674,-0.150707,837,-60
0.1675,-0.168081,837.5,-60
0.1676,-0.157576,838,-60
0.1677,-0.140606,838.5,-60
0.1678,-0.167273,839,-60
0.1679,-0.175354,839.5,-60
0.168,-0.172525,840,-60
0.1681,-0.163636,840.5,-60
0.1682,-0.162828,841,-60
0.1683,-0.185455,841.5,-60
0.1684,-0.186667,842,-60
0.1685,-0.18101,842.5,-60
0.1686,-0.185455,843,-60
0.1687,-0.190707,843.5,-60
0.1688,-0.193535,844,-60
0.1689,-0.20202,844.5,-60
0.169,-0.201212,845,-60
0.1691,-0.20202,845.5,-60
0.1692,-0.199192,846,-60
0.1693,-0.20202,846.5,-60
0.1694,-0.20202,847,-60
0.1695,-0.201212,847.5,-60
0.1696,-0.203636,848,-60
0.1697,-0.202828,848.5,-60
0.1698,-0.202828,849,-60
0.1699,-0.20202,849.5,-60
0.17,-0.202828,850,-60
0.1701,-0.20202,850.5,-60
0.1702,-0.20202,851,-60
0.1703,-0.200808,851.5,-60
0.1704,-0.198788,852,-60
0.1705,-0.201212,852.5,-60
0.1706,-0.199596,853,-60
0.1707,-0.192323,853.5,-60
0.1708,-0.184242,854,-60
0.1709,-0.169697,854.5,-60
0.171,-0.165657,855,-60
0.1711,-0.144242,855.5,-60
0.1712,-0.14101,856,-60
0.1713,-0.120404,856.5,-60
0.1714,-0.0953535,857,-60
0.1715,-0.0892929,857.5,-60
0.1716,-0.0977778,858,-60
0.1717,-0.0751515,858.5,-60
0.1718,-0.0408081,859,-60
0.1719,-0.040404,859.5,-60
0.172,-0.0246465,860,-60
0.1721,-0.00646465,860.5,-60
0.1722,0.0020202,861,-60
0.1723,-0.00767677,861.5,-60
0.1724,0,862,-60
0.1725,0.0121212,862.5,-60
0.1726,0.0315152,863,-60
0.1727,0.0371717,863.5,-60
0.1728,0.04,864,-60
0.1729,0.04,864.5,-60
0.173,0.0505051,865,-60
0.1731,0.04,865.5,-60
0.1732,0.0153535,866,-60
0.1733,0.00121212,866.5,-60
0.1734,-0.00525253,867,-60
0.1735,-0.00323232,867.5,-60
0.1736,-0.0226263,868,-60
0.1737,0.0117172,868.5,-60
0.1738,0.0020202,869,-60
0.1739,-0.0137374,869.5,-60
0.174,-0.0359596,870,-60
0.1741,-0.0339394,870.5,-60
0.1742,-0.0432323,871,-60
0.1743,-0.0456566,871.5,-60
0.1744,-0.0670707,872,-60
0.1745,-0.0791919,872.5,-60
0.1746,-0.079596,873,-60
0.1747,-0.0929293,873.5,-60
0.1748,-0.101818,874,-60
0.1749,-0.121212,874.5,-60
0.175,-0.114343,875,-60
0.1751,-0.11798,875.5,-60
0.1752,-0.105051,876,-60
0.1753,-0.0985859,876.5,-60
0.1754,-0.0921212,877,-60
0.1755,-0.099798,877.5,-60
0.1756,-0.0965657,878,-60
0.1757,-0.0925253,878.5,-60
0.1758,-0.0884848,879,-60
0.1759,-0.0933333,879.5,-60
0.176,-0.100606,880,-60
0.1761,-0.11596,880.5,-60
0.1762,-0.114747,881,-60
0.1763,-0.12202,881.5,-60
0.1764,-0.121616,882,-60
0.1765,-0.130101,882.5,-60
0.1766,-0.154343,883,-60
0.1767,-0.137778,883.5,-60
0.1768,-0.143838,884,-60
0.1769,-0.142222,884.5,-60
0.177,-0.121212,885,-60
0.1771,-0.122828,885.5,-60
0.1772,-0.136566,886,-60
0.1773,-0.175758,886.5,-60
0.1774,-0.161616,887,-60
0.1775,-0.162424,887.5,-60
0.1776,-0.142222,888,-60
0.1777,-0.164848,888.5,-60
0.1778,-0.160808,889,-60
0.1779,-0.138586,889.5,-60
0.178,-0.12202,890,-60
0.1781,-0.151515,890.5,-60
0.1782,-0.170505,891,-60
0.1783,-0.159192,891.5,-60
0.1784,-0.175354,892,-60
0.1785,-0.158788,892.5,-60
0.1786,-0.158384,893,-60
0.1787,-0.154343,893.5,-60
0.1788,-0.154747,894,-60
0.1789,-0.160808,894.5,-60
0.179,-0.158788,895,-60
0.1791,-0.148283,895.5,-60
0.1792,-0.137374,896,-60
0.1793,-0.158788,896.5,-60
0.1794,-0.158384,897,-60
0.1795,-0.170909,897.5,-60
0.1796,-0.130909,898,-60
0.1797,-0.150707,898.5,-60
0.1798,-0.177778,899,-60
0.1799,-0.16202,899.5,-60
0.18,-0.153131,900,-60
0.1801,-0.170909,900.5,-60
0.1802,-0.211313,901,-60
0.1803,-0.219394,901.5,-60
0.1804,-0.244848,902,-60
0.1805,-0.236768,902.5,-60
0.1806,-0.209293,903,-60
0.1807,-0.207273,903.5,-60
0.1808,-0.208889,904,-60
0.1809,-0.208485,904.5,-60
0.181,-0.204444,905,-60
0.1811,-0.20202,905.5,-60
0.1812,-0.20202,906,-59.2946
0.1813,-0.20404,906.5,-59.8911
0.1814,-0.20404,907,-60
0.1815,-0.203636,907.5,-60
0.1816,-0.213737,908,-60
0.1817,-0.206465,908.5,-60
0.1818,-0.211313,909,-60
0.1819,-0.219394,909.5,-60
0.182,-0.211313,910,-60
0.1821,-0.208889,910.5,-60
0.1822,-0.200808,911,-60
0.1823,-0.192323,911.5,-60
0.1824,-0.151919,912,-60
0.1825,-0.114343,912.5,-60
0.1826,-0.0917172,913,-60
0.1827,-0.0836364,913.5,-60
0.1828,-0.0787879,914,-60
0.1829,-0.0662626,914.5,-60
0.183,-0.0763636,915,-60
0.1831,-0.0614141,915.5,-60
0.1832,-0.0424242,916,-60
0.1833,-0.0541414,916.5,-60
0.1834,-0.0666667,917,-60
0.1835,-0.0610101,917.5,-60
0.1836,-0.0428283,918,-60
0.1837,-0.0517172,918.5,-60
0.1838,-0.0424242,919,-60
0.1839,-0.040404,919.5,-60
0.184,-0.0444444,920,-60
0.1841,-0.0565657,920.5,-60
0.1842,-0.0525253,921,-60
0.1843,-0.060202,921.5,-60
0.1844,-0.0711111,922,-60
0.1845,-0.08,922.5,-60
0.1846,-0.0892929,923,-60
0.1847,-0.105455,923.5,-60
0.1848,-0.115556,924,-60
0.1849,-0.121212,924.5,-60
0.185,-0.121616,925,-60
0.1851,-0.123232,925.5,-60
0.1852,-0.121212,926,-60
0.1853,-0.120404,926.5,-60
0.1854,-0.121212,927,-60
0.1855,-0.11596,927.5,-60
0.1856,-0.12,928,-60
0.1857,-0.12,928.5,-60
0.1858,-0.123636,929,-60
0.1859,-0.122424,929.5,-60
0.186,-0.120404,930,-60
0.1861,-0.11798,930.5,-60
0.1862,-0.0941414,931,-60
0.1863,-0.119596,931.5,-60
0.1864,-0.120808,932,-60
0.1865,-0.105455,932.5,-60
0.1866,-0.117576,933,-60
0.1867,-0.121212,933.5,-60
0.1868,-0.123636,934,-60
0.1869,-0.121212,934.5,-60
0.187,-0.123636,935,-60
0.1871,-0.122424,935.5,-60
0.1872,-0.128081,936,-60
0.1873,-0.148687,936.5,-60
0.1874,-0.124444,937,-60
0.1875,-0.145051,937.5,-60
0.1876,-0.158788,938,-60
0.1877,-0.16202,938.5,-60
0.1878,-0.162828,939,-60
0.1879,-0.153535,939.5,-60
0.188,-0.143434,940,-60
0.1881,-0.147475,940.5,-60
0.1882,-0.15798,941,-60
0.1883,-0.160404,941.5,-60
0.1884,-0.191515,942,-60
0.1885,-0.171717,942.5,-60
0.1886,-0.163232,943,-60
0.1887,-0.159192,943.5,-60
0.1888,-0.167677,944,-60
0.1889,-0.18303,944.5,-60
0.189,-0.167677,945,-60
0.1891,-0.145455,945.5,-60
0.1892,-0.147475,946,-60
0.1893,-0.145051,946.5,-60
0.1894,-0.163636,947,-60
0.1895,-0.183434,947.5,-60
0.1896,-0.168081,948,-60
0.1897,-0.18101,948.5,-60
0.1898,-0.17697,949,-60
0.1899,-0.16404,949.5,-60
0.19,-0.147475,950,-60
0.1901,-0.154747,950.5,-60
0.1902,-0.161616,951,-60
0.1903,-0.166061,951.5,-60
0.1904,-0.174141,952,-60
0.1905,-0.175354,952.5,-60
0.1906,-0.157576,953,-60
0.1907,-0.152727,953.5,-60
0.1908,-0.173737,954,-60
0.1909,-0.191515,954.5,-60
0.191,-0.188283,955,-60
0.1911,-0.187879,955.5,-60
0.1912,-0.176162,956,-60
0.1913,-0.16202,956.5,-60
0.1914,-0.162828,957,-60
0.1915,-0.154747,957.5,-60
0.1916,-0.172525,958,-60
0.1917,-0.190707,958.5,-60
0.1918,-0.196364,959,-60
0.1919,-0.189495,959.5,-60
0.192,-0.177778,960,-60
0.1921,-0.168081,960.5,-60
0.1922,-0.135758,961,-60
0.1923,-0.128889,961.5,-60
0.1924,-0.133333,962,-60
0.1925,-0.121616,962.5,-60
0.1926,-0.119192,963,-60
0.1927,-0.119596,963.5,-60
0.1928,-0.0852525,964,-60
0.1929,-0.0820202,964.5,-60
0.193,-0.0820202,965,-60
0.1931,-0.0707071,965.5,-60
0.1932,-0.0767677,966,-60
0.1933,-0.080404,966.5,-60
0.1934,-0.0759596,967,-60
0.1935,-0.0545455,967.5,-60
0.1936,-0.0525253,968,-60
0.1937,-0.0727273,968.5,-60
0.1938,-0.0820202,969,-60
0.1939,-0.0836364,969.5,-60
0.194,-0.090101,970,-60
0.1941,-0.0905051,970.5,-60
0.1942,-0.119596,971,-60
0.1943,-0.121212,971.5,-60
0.1944,-0.112323,972,-60
0.1945,-0.0957576,972.5,-60
0.1946,-0.0989899,973,-60
0.1947,-0.120404,973.5,-60
0.1948,-0.119192,974,-60
0.1949,-0.109091,974.5,-60
0.195,-0.118384,975,-60
0.1951,-0.120808,975.5,-60
0.1952,-0.121212,976,-60
0.1953,-0.121616,976.5,-60
0.1954,-0.120808,977,-60
0.1955,-0.123636,977.5,-60
0.1956,-0.121212,978,-60
0.1957,-0.121212,978.5,-60
0.1958,-0.119192,979,-60
0.1959,-0.120808,979.5,-60
0.196,-0.105455,980,-60
0.1961,-0.0957576,980.5,-60
0.1962,-0.0913131,981,-60
0.1963,-0.107475,981.5,-60
0.1964,-0.121616,982,-60
0.1965,-0.107879,982.5,-60
0.1966,-0.0872727,983,-60
0.1967,-0.11798,983.5,-60
0.1968,-0.12202,984,-60
0.1969,-0.121616,984.5,-60
0.197,-0.126465,985,-60
0.1971,-0.120404,985.5,-60
0.1972,-0.120404,986,-60
0.1973,-0.120808,986.5,-60
0.1974,-0.12,987,-60
0.1975,-0.121212,987.5,-60
0.1976,-0.122424,988,-60
0.1977,-0.12202,988.5,-60
0.1978,-0.12202,989,-60
0.1979,-0.121212,989.5,-60
0.198,-0.121212,990,-60
0.1981,-0.124848,990.5,-60
0.1982,-0.151515,991,-60
0.1983,-0.165253,991.5,-60
0.1984,-0.122424,992,-60
0.1985,-0.120808,992.5,-60
0.1986,-0.121616,993,-60
0.1987,-0.121616,993.5,-60
0.1988,-0.119192,994,-60
0.1989,-0.121212,994.5,-60
0.199,-0.114343,995,-60
0.1991,-0.107475,995.5,-60
0.1992,-0.0884848,996,-60
0.1993,-0.0957576,996.5,-60
0.1994,-0.0957576,997,-60
0.1995,-0.0949495,997.5,-60
0.1996,-0.0892929,998,-60
0.1997,-0.0913131,998.5,-60
0.1998,-0.109091,999,-60
0.1999,-0.0880808,999.5,-60
0.2,-0.080404,1,000,-60
0.2001,-0.0573737,1,000.5,-60
0.2002,-0.0646465,1,001,-60
0.2003,-0.0783838,1,001.5,-60
0.2004,-0.0832323,1,002,-60
0.2005,-0.0909091,1,002.5,-60
0.2006,-0.100202,1,003,-60
0.2007,-0.0888889,1,003.5,-60
0.2008,-0.114747,1,004,-60
0.2009,-0.12,1,004.5,-60
0.201,-0.10303,1,005,-60
0.2011,-0.106263,1,005.5,-60
0.2012,-0.100202,1,006,-60
0.2013,-0.119596,1,006.5,-60
0.2014,-0.104646,1,007,-60
0.2015,-0.103434,1,007.5,-60
0.2016,-0.115152,1,008,-60
0.2017,-0.103434,1,008.5,-60
0.2018,-0.10101,1,009,-60
0.2019,-0.0868687,1,009.5,-60
0.202,-0.0929293,1,010,-60
0.2021,-0.117576,1,010.5,-60
0.2022,-0.121212,1,011,-60
0.2023,-0.12404,1,011.5,-60
0.2024,-0.118384,1,012,-60
0.2025,-0.105051,1,012.5,-60
0.2026,-0.113131,1,013,-60
0.2027,-0.106263,1,013.5,-60
0.2028,-0.120808,1,014,-60
0.2029,-0.123636,1,014.5,-60
0.203,-0.126061,1,015,-60
0.2031,-0.145455,1,015.5,-60
0.2032,-0.13899,1,016,-60
0.2033,-0.148283,1,016.5,-60
0.2034,-0.181414,1,017,-60
0.2035,-0.186667,1,017.5,-60
0.2036,-0.17899,1,018,-60
0.2037,-0.152323,1,018.5,-60
0.2038,-0.12404,1,019,-60
0.2039,-0.124848,1,019.5,-60
0.204,-0.124444,1,020,-60
0.2041,-0.121616,1,020.5,-60
0.2042,-0.122424,1,021,-60
0.2043,-0.149899,1,021.5,-60
0.2044,-0.16404,1,022,-60
0.2045,-0.176566,1,022.5,-60
0.2046,-0.177778,1,023,-60
0.2047,-0.166869,1,023.5,-60
0.2048,-0.192727,1,024,-60
0.2049,-0.198788,1,024.5,-60
0.205,-0.200404,1,025,-60
0.2051,-0.20202,1,025.5,-60
0.2052,-0.202424,1,026,-60
0.2053,-0.20202,1,026.5,-60
0.2054,-0.200808,1,027,-60
0.2055,-0.202828,1,027.5,-60
0.2056,-0.202424,1,028,-60
0.2057,-0.2,1,028.5,-60
0.2058,-0.202424,1,029,-60
0.2059,-0.20404,1,029.5,-60
0.206,-0.206465,1,030,-60
0.2061,-0.202828,1,030.5,-60
0.2062,-0.201616,1,031,-60
0.2063,-0.186667,1,031.5,-60
0.2064,-0.174949,1,032,-60
0.2065,-0.151111,1,032.5,-60
0.2066,-0.15798,1,033,-60
0.2067,-0.153535,1,033.5,-60
0.2068,-0.147071,1,034,-60
0.2069,-0.143434,1,034.5,-60
0.207,-0.146263,1,035,-60
0.2071,-0.168081,1,035.5,-60
0.2072,-0.168081,1,036,-60
0.2073,-0.172525,1,036.5,-60
0.2074,-0.137778,1,037,-60
0.2075,-0.13697,1,037.5,-60
0.2076,-0.126465,1,038,-60
0.2077,-0.126465,1,038.5,-60
0.2078,-0.121616,1,039,-60
0.2079,-0.117576,1,039.5,-60
0.208,-0.108687,1,040,-60
0.2081,-0.119192,1,040.5,-60
0.2082,-0.123636,1,041,-60
0.2083,-0.124444,1,041.5,-60
0.2084,-0.122828,1,042,-60
0.2085,-0.120808,1,042.5,-60
0.2086,-0.123232,1,043,-60
0.2087,-0.121212,1,043.5,-60
0.2088,-0.122424,1,044,-60
0.2089,-0.133737,1,044.5,-60
0.209,-0.129697,1,045,-60
0.2091,-0.13697,1,045.5,-60
0.2092,-0.121212,1,046,-60
0.2093,-0.12202,1,046.5,-60
0.2094,-0.142222,1,047,-60
0.2095,-0.121616,1,047.5,-60
0.2096,-0.123232,1,048,-60
0.2097,-0.121212,1,048.5,-60
0.2098,-0.0957576,1,049,-60
0.2099,-0.0973737,1,049.5,-60
0.21,-0.118788,1,050,-60
0.2101,-0.115556,1,050.5,-60
0.2102,-0.118384,1,051,-60
0.2103,-0.120808,1,051.5,-60
0.2104,-0.120808,1,052,-60
0.2105,-0.124444,1,052.5,-60
0.2106,-0.136566,1,053,-60
0.2107,-0.121616,1,053.5,-60
0.2108,-0.120808,1,054,-60
0.2109,-0.121212,1,054.5,-60
0.211,-0.127273,1,055,-60
0.2111,-0.12202,1,055.5,-60
0.2112,-0.125253,1,056,-60
0.2113,-0.123636,1,056.5,-60
0.2114,-0.121212,1,057,-60
0.2115,-0.116364,1,057.5,-60
0.2116,-0.12,1,058,-60
0.2117,-0.122424,1,058.5,-60
0.2118,-0.121212,1,059,-60
0.2119,-0.121212,1,059.5,-60
0.212,-0.130505,1,060,-60
0.2121,-0.127273,1,060.5,-60
0.2122,-0.133333,1,061,-60
0.2123,-0.128081,1,061.5,-60
0.2124,-0.145455,1,062,-60
0.2125,-0.139394,1,062.5,-60
0.2126,-0.134141,1,063,-60
0.2127,-0.145859,1,063.5,-60
0.2128,-0.122828,1,064,-60
0.2129,-0.121212,1,064.5,-60
0.213,-0.123232,1,065,-60
0.2131,-0.124444,1,065.5,-60
0.2132,-0.121616,1,066,-60
0.2133,-0.118384,1,066.5,-60
0.2134,-0.0945455,1,067,-60
0.2135,-0.0892929,1,067.5,-60
0.2136,-0.080404,1,068,-60
0.2137,-0.079596,1,068.5,-60
0.2138,-0.0763636,1,069,-60
0.2139,-0.0775758,1,069.5,-60
0.214,-0.0662626,1,070,-60
0.2141,-0.0549495,1,070.5,-60
0.2142,-0.0420202,1,071,-60
0.2143,-0.0444444,1,071.5,-60
0.2144,-0.0452525,1,072,-60
0.2145,-0.049697,1,072.5,-60
0.2146,-0.0416162,1,073,-60
0.2147,-0.0448485,1,073.5,-60
0.2148,-0.0488889,1,074,-60
0.2149,-0.0626263,1,074.5,-60
0.215,-0.0642424,1,075,-60
0.2151,-0.0743434,1,075.5,-60
0.2152,-0.0791919,1,076,-60
0.2153,-0.0820202,1,076.5,-60
0.2154,-0.11798,1,077,-60
0.2155,-0.121212,1,077.5,-60
0.2156,-0.120808,1,078,-60
0.2157,-0.122828,1,078.5,-60
0.2158,-0.121212,1,079,-60
0.2159,-0.122828,1,079.5,-60
0.216,-0.128081,1,080,-60
0.2161,-0.127677,1,080.5,-60
0.2162,-0.121212,1,081,-60
0.2163,-0.122424,1,081.5,-60
0.2164,-0.127677,1,082,-60
0.2165,-0.122424,1,082.5,-60
0.2166,-0.121212,1,083,-60
0.2167,-0.12404,1,083.5,-60
0.2168,-0.145859,1,084,-60
0.2169,-0.12202,1,084.5,-60
0.217,-0.121212,1,085,-60
0.2171,-0.121212,1,085.5,-60
0.2172,-0.114343,1,086,-60
0.2173,-0.0844444,1,086.5,-60
0.2174,-0.101414,1,087,-60
0.2175,-0.120808,1,087.5,-60
0.2176,-0.11798,1,088,-60
0.2177,-0.113939,1,088.5,-60
0.2178,-0.120808,1,089,-60
0.2179,-0.121212,1,089.5,-60
0.218,-0.116364,1,090,-60
0.2181,-0.0949495,1,090.5,-60
0.2182,-0.0876768,1,091,-60
0.2183,-0.109899,1,091.5,-60
0.2184,-0.120404,1,092,-60
0.2185,-0.118788,1,092.5,-60
0.2186,-0.103838,1,093,-60
0.2187,-0.12,1,093.5,-60
0.2188,-0.0945455,1,094,-60
0.2189,-0.080404,1,094.5,-60
0.219,-0.0808081,1,095,-60
0.2191,-0.0872727,1,095.5,-60
0.2192,-0.108283,1,096,-60
0.2193,-0.120404,1,096.5,-60
0.2194,-0.117172,1,097,-60
0.2195,-0.119192,1,097.5,-60
0.2196,-0.136566,1,098,-60
0.2197,-0.163232,1,098.5,-60
0.2198,-0.164444,1,099,-60
0.2199,-0.180606,1,099.5,-60
0.22,-0.191111,1,100,-60
0.2201,-0.199596,1,100.5,-60
0.2202,-0.177778,1,101,-60
0.2203,-0.175354,1,101.5,-60
0.2204,-0.178182,1,102,-60
0.2205,-0.162828,1,102.5,-60
0.2206,-0.167273,1,103,-60
0.2207,-0.15798,1,103.5,-60
0.2208,-0.159596,1,104,-60
0.2209,-0.142626,1,104.5,-60
0.221,-0.151111,1,105,-60
0.2211,-0.156768,1,105.5,-60
0.2212,-0.157172,1,106,-60
0.2213,-0.138586,1,106.5,-60
0.2214,-0.124444,1,107,-60
0.2215,-0.131717,1,107.5,-60
0.2216,-0.13697,1,108,-60
0.2217,-0.146667,1,108.5,-60
0.2218,-0.160404,1,109,-60
0.2219,-0.160808,1,109.5,-60
0.222,-0.14101,1,110,-60
0.2221,-0.149899,1,110.5,-60
0.2222,-0.15596,1,111,-60
0.2223,-0.16404,1,111.5,-60
0.2224,-0.167273,1,112,-60
0.2225,-0.141414,1,112.5,-60
0.2226,-0.122424,1,113,-60
0.2227,-0.130909,1,113.5,-60
0.2228,-0.118384,1,114,-60
0.2229,-0.120404,1,114.5,-60
0.223,-0.121212,1,115,-60
0.2231,-0.121212,1,115.5,-60
0.2232,-0.11798,1,116,-60
0.2233,-0.120808,1,116.5,-60
0.2234,-0.121616,1,117,-60
0.2235,-0.120404,1,117.5,-60
0.2236,-0.12,1,118,-60
0.2237,-0.118788,1,118.5,-60
0.2238,-0.121212,1,119,-60
0.2239,-0.114747,1,119.5,-60
0.224,-0.104242,1,120,-60
0.2241,-0.111515,1,120.5,-60
0.2242,-0.0969697,1,121,-60
0.2243,-0.0844444,1,121.5,-60
0.2244,-0.0812121,1,122,-60
0.2245,-0.0836364,1,122.5,-60
0.2246,-0.0852525,1,123,-60
0.2247,-0.0905051,1,123.5,-60
0.2248,-0.116364,1,124,-60
0.2249,-0.113131,1,124.5,-60
0.225,-0.117576,1,125,-60
0.2251,-0.114747,1,125.5,-60
0.2252,-0.119596,1,126,-60
0.2253,-0.121616,1,126.5,-60
0.2254,-0.120808,1,127,-60
0.2255,-0.121616,1,127.5,-60
0.2256,-0.12202,1,128,-60
0.2257,-0.121212,1,128.5,-60
0.2258,-0.121212,1,129,-60
0.2259,-0.129697,1,129.5,-60
0.226,-0.154343,1,130,-60
0.2261,-0.165657,1,130.5,-60
0.2262,-0.170505,1,131,-60
0.2263,-0.191919,1,131.5,-60
0.2264,-0.190303,1,132,-60
0.2265,-0.198384,1,132.5,-60
0.2266,-0.20202,1,133,-60
0.2267,-0.20202,1,133.5,-60
0.2268,-0.208889,1,134,-60
0.2269,-0.205253,1,134.5,-60
0.227,-0.199596,1,135,-60
0.2271,-0.20202,1,135.5,-60
0.2272,-0.20202,1,136,-60
0.2273,-0.20202,1,136.5,-60
0.2274,-0.20202,1,137,-60
0.2275,-0.198788,1,137.5,-60
0.2276,-0.202424,1,138,-60
0.2277,-0.2,1,138.5,-60
0.2278,-0.185859,1,139,-60
0.2279,-0.165657,1,139.5,-60
0.228,-0.160808,1,140,-60
0.2281,-0.137778,1,140.5,-60
0.2282,-0.121212,1,141,-60
0.2283,-0.121616,1,141.5,-60
0.2284,-0.118384,1,142,-60
0.2285,-0.0945455,1,142.5,-60
0.2286,-0.0820202,1,143,-60
0.2287,-0.0775758,1,143.5,-60
0.2288,-0.0646465,1,144,-60
0.2289,-0.0420202,1,144.5,-60
0.229,-0.0452525,1,145,-60
0.2291,-0.040404,1,145.5,-60
0.2292,-0.04,1,146,-60
0.2293,-0.04,1,146.5,-60
0.2294,-0.0387879,1,147,-60
0.2295,-0.030303,1,147.5,-60
0.2296,-0.0363636,1,148,-60
0.2297,-0.0351515,1,148.5,-60
0.2298,-0.0371717,1,149,-60
0.2299,-0.04,1,149.5,-60
0.23,-0.0412121,1,150,-60
0.2301,-0.040404,1,150.5,-60
0.2302,-0.0371717,1,151,-60
0.2303,-0.0214141,1,151.5,-60
0.2304,-0.0375758,1,152,-60
0.2305,-0.0391919,1,152.5,-60
0.2306,-0.04,1,153,-60
0.2307,-0.0448485,1,153.5,-60
0.2308,-0.0456566,1,154,-60
0.2309,-0.0686869,1,154.5,-60
0.231,-0.0791919,1,155,-60
0.2311,-0.0715152,1,155.5,-60
0.2312,-0.0694949,1,156,-60
0.2313,-0.0864646,1,156.5,-60
0.2314,-0.0852525,1,157,-60
0.2315,-0.111515,1,157.5,-60
0.2316,-0.121212,1,158,-60
0.2317,-0.122828,1,158.5,-60
0.2318,-0.12202,1,159,-60
0.2319,-0.12202,1,159.5,-60
0.232,-0.121616,1,160,-60
0.2321,-0.122828,1,160.5,-60
0.2322,-0.121212,1,161,-60
0.2323,-0.121212,1,161.5,-60
0.2324,-0.12404,1,162,-60
0.2325,-0.131717,1,162.5,-60
0.2326,-0.122424,1,163,-60
0.2327,-0.125657,1,163.5,-60
0.2328,-0.129697,1,164,-60
0.2329,-0.14101,1,164.5,-60
0.233,-0.146667,1,165,-60
0.2331,-0.134545,1,165.5,-60
0.2332,-0.139798,1,166,-60
0.2333,-0.159596,1,166.5,-60
0.2334,-0.157576,1,167,-60
0.2335,-0.122424,1,167.5,-60
0.2336,-0.12202,1,168,-60
0.2337,-0.121616,1,168.5,-60
0.2338,-0.134141,1,169,-60
0.2339,-0.123232,1,169.5,-60
0.234,-0.133333,1,170,-60
0.2341,-0.147879,1,170.5,-60
0.2342,-0.123636,1,171,-60
0.2343,-0.135758,1,171.5,-60
0.2344,-0.158384,1,172,-60
0.2345,-0.154343,1,172.5,-60
0.2346,-0.149899,1,173,-60
0.2347,-0.147071,1,173.5,-60
0.2348,-0.168485,1,174,-60
0.2349,-0.146667,1,174.5,-60
0.235,-0.146667,1,175,-60
0.2351,-0.121616,1,175.5,-60
0.2352,-0.121212,1,176,-60
0.2353,-0.121212,1,176.5,-60
0.2354,-0.120404,1,177,-60
0.2355,-0.11798,1,177.5,-60
0.2356,-0.110707,1,178,-60
0.2357,-0.116768,1,178.5,-60
0.2358,-0.0872727,1,179,-60
0.2359,-0.0945455,1,179.5,-60
0.236,-0.102222,1,180,-60
0.2361,-0.0868687,1,180.5,-60
0.2362,-0.105051,1,181,-60
0.2363,-0.0872727,1,181.5,-60
0.2364,-0.0868687,1,182,-60
0.2365,-0.110303,1,182.5,-60
0.2366,-0.107879,1,183,-60
0.2367,-0.0953535,1,183.5,-60
0.2368,-0.0856566,1,184,-60
0.2369,-0.090101,1,184.5,-60
0.237,-0.0909091,1,185,-60
0.2371,-0.0969697,1,185.5,-60
0.2372,-0.11596,1,186,-60
0.2373,-0.118384,1,186.5,-60
0.2374,-0.114343,1,187,-60
0.2375,-0.110707,1,187.5,-60
0.2376,-0.11596,1,188,-60
0.2377,-0.119192,1,188.5,-60
0.2378,-0.121212,1,189,-60
0.2379,-0.121212,1,189.5,-60
0.238,-0.111515,1,190,-60
0.2381,-0.11798,1,190.5,-60
0.2382,-0.130505,1,191,-60
0.2383,-0.132525,1,191.5,-60
0.2384,-0.122828,1,192,-60
0.2385,-0.120808,1,192.5,-60
0.2386,-0.120808,1,193,-60
0.2387,-0.126869,1,193.5,-60
0.2388,-0.145859,1,194,-60
0.2389,-0.128081,1,194.5,-60
0.239,-0.123232,1,195,-60
0.2391,-0.139798,1,195.5,-60
0.2392,-0.154747,1,196,-60
0.2393,-0.170101,1,196.5,-60
0.2394,-0.154343,1,197,-60
0.2395,-0.153131,1,197.5,-60
0.2396,-0.156768,1,198,-60
0.2397,-0.145051,1,198.5,-60
0.2398,-0.155556,1,199,-60
0.2399,-0.145051,1,199.5,-60
0.24,-0.124848,1,200,-60
0.2401,-0.135758,1,200.5,-60
0.2402,-0.138586,1,201,-60
0.2403,-0.121616,1,201.5,-60
0.2404,-0.121616,1,202,-60
0.2405,-0.123636,1,202.5,-60
0.2406,-0.121212,1,203,-60
0.2407,-0.121616,1,203.5,-60
0.2408,-0.130101,1,204,-60
0.2409,-0.134141,1,204.5,-60
0.241,-0.12202,1,205,-60
0.2411,-0.117576,1,205.5,-60
0.2412,-0.122424,1,206,-60
0.2413,-0.120808,1,206.5,-60
0.2414,-0.113939,1,207,-60
0.2415,-0.118384,1,207.5,-60
0.2416,-0.120808,1,208,-60
0.2417,-0.115556,1,208.5,-60
0.2418,-0.0993939,1,209,-60
0.2419,-0.0840404,1,209.5,-60
0.242,-0.090101,1,210,-60
0.2421,-0.10303,1,210.5,-60
0.2422,-0.106263,1,211,-60
0.2423,-0.114747,1,211.5,-60
0.2424,-0.121212,1,212,-60
0.2425,-0.121212,1,212.5,-60
0.2426,-0.139394,1,213,-60
0.2427,-0.164444,1,213.5,-60
0.2428,-0.156364,1,214,-60
0.2429,-0.153939,1,214.5,-60
0.243,-0.133737,1,215,-60
0.2431,-0.121212,1,215.5,-60
0.2432,-0.130101,1,216,-60
0.2433,-0.124848,1,216.5,-60
0.2434,-0.127677,1,217,-60
0.2435,-0.132525,1,217.5,-60
0.2436,-0.12202,1,218,-60
0.2437,-0.121212,1,218.5,-60
0.2438,-0.118788,1,219,-60
0.2439,-0.116768,1,219.5,-60
0.244,-0.0945455,1,220,-60
0.2441,-0.0981818,1,220.5,-60
0.2442,-0.0969697,1,221,-60
0.2443,-0.109495,1,221.5,-60
0.2444,-0.0808081,1,222,-60
0.2445,-0.0876768,1,222.5,-60
0.2446,-0.0949495,1,223,-60
0.2447,-0.104242,1,223.5,-60
0.2448,-0.0945455,1,224,-60
0.2449,-0.0848485,1,224.5,-60
0.245,-0.0848485,1,225,-60
0.2451,-0.090101,1,225.5,-60
0.2452,-0.10101,1,226,-60
0.2453,-0.10303,1,226.5,-60
0.2454,-0.12,1,227,-60
0.2455,-0.0937374,1,227.5,-60
0.2456,-0.104646,1,228,-60
0.2457,-0.120404,1,228.5,-60
0.2458,-0.121212,1,229,-60
0.2459,-0.120808,1,229.5,-60
0.246,-0.120404,1,230,-60
0.2461,-0.121212,1,230.5,-60
0.2462,-0.121212,1,231,-60
0.2463,-0.124848,1,231.5,-60
0.2464,-0.140606,1,232,-60
0.2465,-0.128485,1,232.5,-60
0.2466,-0.157576,1,233,-60
0.2467,-0.127273,1,233.5,-60
0.2468,-0.124848,1,234,-60
0.2469,-0.126061,1,234.5,-60
0.247,-0.121616,1,235,-60
0.2471,-0.135758,1,235.5,-60
0.2472,-0.134141,1,236,-60
0.2473,-0.123232,1,236.5,-60
0.2474,-0.121212,1,237,-60
0.2475,-0.120404,1,237.5,-60
0.2476,-0.111919,1,238,-60
0.2477,-0.109899,1,238.5,-60
0.2478,-0.118788,1,239,-60
0.2479,-0.113131,1,239.5,-60
0.248,-0.119596,1,240,-60
0.2481,-0.116768,1,240.5,-60
0.2482,-0.121616,1,241,-60
0.2483,-0.120808,1,241.5,-60
0.2484,-0.108283,1,242,-60
0.2485,-0.102626,1,242.5,-60
0.2486,-0.0816162,1,243,-60
0.2487,-0.0779798,1,243.5,-60
0.2488,-0.0727273,1,244,-60
0.2489,-0.0694949,1,244.5,-60
0.249,-0.0884848,1,245,-60
0.2491,-0.099798,1,245.5,-60
0.2492,-0.0828283,1,246,-60
0.2493,-0.110707,1,246.5,-60
0.2494,-0.107475,1,247,-60
0.2495,-0.100606,1,247.5,-60
0.2496,-0.0840404,1,248,-60
0.2497,-0.0941414,1,248.5,-60
0.2498,-0.0961616,1,249,-60
0.2499,-0.0860606,1,249.5,-60
0.25,-0.0933333,1,250,-60
0.2501,-0.0993939,1,250.5,-60
0.2502,-0.0909091,1,251,-60
0.2503,-0.0844444,1,251.5,-60
0.2504,-0.0856566,1,252,-60
0.2505,-0.0961616,1,252.5,-60
0.2506,-0.11596,1,253,-60
0.2507,-0.0949495,1,253.5,-60
0.2508,-0.111919,1,254,-60
0.2509,-0.118384,1,254.5,-60
0.251,-0.111515,1,255,-60
0.2511,-0.102222,1,255.5,-60
0.2512,-0.0965657,1,256,-60
0.2513,-0.100606,1,256.5,-60
0.2514,-0.112323,1,257,-60
0.2515,-0.10303,1,257.5,-60
0.2516,-0.10303,1,258,-60
0.2517,-0.120404,1,258.5,-60
0.2518,-0.121212,1,259,-60
0.2519,-0.128889,1,259.5,-60
0.252,-0.128485,1,260,-60
0.2521,-0.126061,1,260.5,-60
0.2522,-0.145051,1,261,-60
0.2523,-0.124444,1,261.5,-60
0.2524,-0.121616,1,262,-60
0.2525,-0.121212,1,262.5,-60
0.2526,-0.122424,1,263,-60
0.2527,-0.139394,1,263.5,-60
0.2528,-0.148687,1,264,-60
0.2529,-0.149899,1,264.5,-60
0.253,-0.13697,1,265,-60
0.2531,-0.121616,1,265.5,-60
0.2532,-0.123636,1,266,-60
0.2533,-0.128889,1,266.5,-60
0.2534,-0.167273,1,267,-60
0.2535,-0.205657,1,267.5,-60
0.2536,-0.22101,1,268,-60
0.2537,-0.22303,1,268.5,-60
0.2538,-0.208889,1,269,-60
0.2539,-0.213333,1,269.5,-60
0.254,-0.212525,1,270,-60
0.2541,-0.208485,1,270.5,-60
0.2542,-0.220202,1,271,-60
0.2543,-0.203636,1,271.5,-60
0.2544,-0.20202,1,272,-60
0.2545,-0.207273,1,272.5,-60
0.2546,-0.203232,1,273,-60
0.2547,-0.205253,1,273.5,-60
0.2548,-0.20202,1,274,-60
0.2549,-0.166061,1,274.5,-60
0.255,-0.163232,1,275,-60
0.2551,-0.151919,1,275.5,-60
0.2552,-0.138182,1,276,-60
0.2553,-0.127677,1,276.5,-60
0.2554,-0.149899,1,277,-60
0.2555,-0.149091,1,277.5,-60
0.2556,-0.139798,1,278,-60
0.2557,-0.146263,1,278.5,-60
0.2558,-0.165657,1,279,-60
0.2559,-0.150707,1,279.5,-60
0.256,-0.121616,1,280,-60
0.2561,-0.130505,1,280.5,-60
0.2562,-0.125657,1,281,-60
0.2563,-0.122828,1,281.5,-60
0.2564,-0.132525,1,282,-60
0.2565,-0.153131,1,282.5,-60
0.2566,-0.14101,1,283,-60
0.2567,-0.139394,1,283.5,-60
0.2568,-0.12202,1,284,-60
0.2569,-0.121212,1,284.5,-60
0.257,-0.122424,1,285,-60
0.2571,-0.123232,1,285.5,-60
0.2572,-0.121616,1,286,-60
0.2573,-0.120404,1,286.5,-60
0.2574,-0.126061,1,287,-60
0.2575,-0.122424,1,287.5,-60
0.2576,-0.121212,1,288,-60
0.2577,-0.120808,1,288.5,-60
0.2578,-0.114343,1,289,-60
0.2579,-0.120404,1,289.5,-60
0.258,-0.112727,1,290,-60
0.2581,-0.120808,1,290.5,-60
0.2582,-0.120808,1,291,-60
0.2583,-0.119596,1,291.5,-60
0.2584,-0.120808,1,292,-60
0.2585,-0.118384,1,292.5,-60
0.2586,-0.0856566,1,293,-60
0.2587,-0.116768,1,293.5,-60
0.2588,-0.120404,1,294,-60
0.2589,-0.125253,1,294.5,-60
0.259,-0.132929,1,295,-60
0.2591,-0.12202,1,295.5,-60
0.2592,-0.138182,1,296,-60
0.2593,-0.12404,1,296.5,-60
0.2594,-0.121212,1,297,-60
0.2595,-0.12202,1,297.5,-60
0.2596,-0.12404,1,298,-60
0.2597,-0.120808,1,298.5,-60
0.2598,-0.128485,1,299,-60
0.2599,-0.125253,1,299.5,-60
0.26,-0.127677,1,300,-60
0.2601,-0.130101,1,300.5,-60
0.2602,-0.147071,1,301,-60
0.2603,-0.137778,1,301.5,-60
0.2604,-0.131313,1,302,-60
0.2605,-0.153939,1,302.5,-60
0.2606,-0.13697,1,303,-60
0.2607,-0.131717,1,303.5,-60
0.2608,-0.159596,1,304,-60
0.2609,-0.161616,1,304.5,-60
0.261,-0.142626,1,305,-60
0.2611,-0.145051,1,305.5,-60
0.2612,-0.157576,1,306,-60
0.2613,-0.153131,1,306.5,-60
0.2614,-0.156364,1,307,-60
0.2615,-0.182626,1,307.5,-60
0.2616,-0.202424,1,308,-60
0.2617,-0.193131,1,308.5,-60
0.2618,-0.189495,1,309,-60
0.2619,-0.201616,1,309.5,-60
0.262,-0.194343,1,310,-60
0.2621,-0.159192,1,310.5,-60
0.2622,-0.158788,1,311,-60
0.2623,-0.150303,1,311.5,-60
0.2624,-0.162828,1,312,-60
0.2625,-0.163232,1,312.5,-60
0.2626,-0.170101,1,313,-60
0.2627,-0.164848,1,313.5,-60
0.2628,-0.155152,1,314,-60
0.2629,-0.157172,1,314.5,-60
0.263,-0.159192,1,315,-60
0.2631,-0.142626,1,315.5,-60
0.2632,-0.164848,1,316,-60
0.2633,-0.160404,1,316.5,-60
0.2634,-0.157172,1,317,-60
0.2635,-0.165657,1,317.5,-60
0.2636,-0.176566,1,318,-60
0.2637,-0.179394,1,318.5,-60
0.2638,-0.172525,1,319,-60
0.2639,-0.160404,1,319.5,-60
0.264,-0.161212,1,320,-60
0.2641,-0.140606,1,320.5,-60
0.2642,-0.121212,1,321,-60
0.2643,-0.121212,1,321.5,-60
0.2644,-0.112727,1,322,-60
0.2645,-0.120404,1,322.5,-60
0.2646,-0.120808,1,323,-60
0.2647,-0.114747,1,323.5,-60
0.2648,-0.119596,1,324,-60
0.2649,-0.117172,1,324.5,-60
0.265,-0.115556,1,325,-60
0.2651,-0.119596,1,325.5,-60
0.2652,-0.114747,1,326,-60
0.2653,-0.111515,1,326.5,-60
0.2654,-0.107071,1,327,-60
0.2655,-0.10303,1,327.5,-60
0.2656,-0.089697,1,328,-60
0.2657,-0.106263,1,328.5,-60
0.2658,-0.108687,1,329,-60
0.2659,-0.0840404,1,329.5,-60
0.266,-0.0957576,1,330,-60
0.2661,-0.0852525,1,330.5,-60
0.2662,-0.101818,1,331,-60
0.2663,-0.0836364,1,331.5,-60
0.2664,-0.0884848,1,332,-60
0.2665,-0.103434,1,332.5,-60
0.2666,-0.117172,1,333,-60
0.2667,-0.124848,1,333.5,-60
0.2668,-0.123232,1,334,-60
0.2669,-0.122424,1,334.5,-60
0.267,-0.149091,1,335,-60
0.2671,-0.14303,1,335.5,-60
0.2672,-0.127273,1,336,-60
0.2673,-0.134141,1,336.5,-60
0.2674,-0.121616,1,337,-60
0.2675,-0.105455,1,337.5,-60
0.2676,-0.113131,1,338,-60
0.2677,-0.0787879,1,338.5,-60
0.2678,-0.0775758,1,339,-60
0.2679,-0.0763636,1,339.5,-60
0.268,-0.0751515,1,340,-60
0.2681,-0.0626263,1,340.5,-60
0.2682,-0.0812121,1,341,-60
0.2683,-0.0642424,1,341.5,-60
0.2684,-0.0468687,1,342,-60
0.2685,-0.0541414,1,342.5,-60
0.2686,-0.0480808,1,343,-60
0.2687,-0.0424242,1,343.5,-60
0.2688,-0.0436364,1,344,-60
0.2689,-0.0654545,1,344.5,-60
0.269,-0.0852525,1,345,-60
0.2691,-0.105051,1,345.5,-60
0.2692,-0.0973737,1,346,-60
0.2693,-0.0876768,1,346.5,-60
0.2694,-0.105051,1,347,-60
0.2695,-0.116768,1,347.5,-60
0.2696,-0.117172,1,348,-60
0.2697,-0.0969697,1,348.5,-60
0.2698,-0.106667,1,349,-60
0.2699,-0.126061,1,349.5,-60
0.27,-0.14303,1,350,-60
0.2701,-0.122828,1,350.5,-60
0.2702,-0.121212,1,351,-60
0.2703,-0.123232,1,351.5,-60
0.2704,-0.126465,1,352,-60
0.2705,-0.126869,1,352.5,-60
0.2706,-0.116364,1,353,-60
0.2707,-0.121212,1,353.5,-60
0.2708,-0.124848,1,354,-60
0.2709,-0.130101,1,354.5,-60
0.271,-0.115556,1,355,-60
0.2711,-0.0985859,1,355.5,-60
0.2712,-0.0981818,1,356,-60
0.2713,-0.119192,1,356.5,-60
0.2714,-0.11798,1,357,-60
0.2715,-0.12,1,357.5,-60
0.2716,-0.121212,1,358,-60
0.2717,-0.117576,1,358.5,-60
0.2718,-0.124848,1,359,-60
0.2719,-0.121616,1,359.5,-60
0.272,-0.120404,1,360,-60
0.2721,-0.126869,1,360.5,-60
0.2722,-0.12404,1,361,-60
0.2723,-0.12,1,361.5,-60
0.2724,-0.123232,1,362,-60
0.2725,-0.127677,1,362.5,-60
0.2726,-0.126061,1,363,-60
0.2727,-0.121212,1,363.5,-60
0.2728,-0.118788,1,364,-60
0.2729,-0.118788,1,364.5,-60
0.273,-0.115556,1,365,-60
0.2731,-0.120808,1,365.5,-60
0.2732,-0.121212,1,366,-60
0.2733,-0.122424,1,366.5,-60
0.2734,-0.124848,1,367,-60
0.2735,-0.120808,1,367.5,-60
0.2736,-0.132525,1,368,-60
0.2737,-0.124444,1,368.5,-60
0.2738,-0.119596,1,369,-60
0.2739,-0.120404,1,369.5,-60
0.274,-0.120404,1,370,-60
0.2741,-0.120808,1,370.5,-60
0.2742,-0.120808,1,371,-60
0.2743,-0.11798,1,371.5,-60
0.2744,-0.121212,1,372,-60
0.2745,-0.119596,1,372.5,-60
0.2746,-0.117576,1,373,-60
0.2747,-0.121212,1,373.5,-60
0.2748,-0.122828,1,374,-60
0.2749,-0.123636,1,374.5,-60
0.275,-0.141818,1,375,-60
0.2751,-0.154747,1,375.5,-60
0.2752,-0.158788,1,376,-60
0.2753,-0.188687,1,376.5,-60
0.2754,-0.170909,1,377,-60
0.2755,-0.170505,1,377.5,-60
0.2756,-0.19798,1,378,-60
0.2757,-0.200808,1,378.5,-60
0.2758,-0.200808,1,379,-60
0.2759,-0.185051,1,379.5,-60
0.276,-0.169293,1,380,-60
0.2761,-0.134545,1,380.5,-60
0.2762,-0.139798,1,381,-60
0.2763,-0.135354,1,381.5,-60
0.2764,-0.135758,1,382,-60
0.2765,-0.125253,1,382.5,-60
0.2766,-0.125253,1,383,-60
0.2767,-0.126869,1,383.5,-60
0.2768,-0.125657,1,384,-60
0.2769,-0.123232,1,384.5,-60
0.277,-0.122828,1,385,-60
0.2771,-0.14303,1,385.5,-60
0.2772,-0.155152,1,386,-60
0.2773,-0.16404,1,386.5,-60
0.2774,-0.150303,1,387,-60
0.2775,-0.140606,1,387.5,-60
0.2776,-0.134141,1,388,-60
0.2777,-0.144242,1,388.5,-60
0.2778,-0.136162,1,389,-60
0.2779,-0.16,1,389.5,-60
0.278,-0.136566,1,390,-60
0.2781,-0.145859,1,390.5,-60
0.2782,-0.152727,1,391,-60
0.2783,-0.158788,1,391.5,-60
0.2784,-0.162828,1,392,-60
0.2785,-0.189091,1,392.5,-60
0.2786,-0.17697,1,393,-60
0.2787,-0.185859,1,393.5,-60
0.2788,-0.173737,1,394,-60
0.2789,-0.194343,1,394.5,-60
0.279,-0.182222,1,395,-60
0.2791,-0.169697,1,395.5,-60
0.2792,-0.184242,1,396,-60
0.2793,-0.18303,1,396.5,-60
0.2794,-0.170101,1,397,-60
0.2795,-0.163232,1,397.5,-60
0.2796,-0.191515,1,398,-60
0.2797,-0.193535,1,398.5,-60
0.2798,-0.171717,1,399,-60
0.2799,-0.160404,1,399.5,-60
0.28,-0.189091,1,400,-60
0.2801,-0.172121,1,400.5,-60
0.2802,-0.17899,1,401,-60
0.2803,-0.166465,1,401.5,-60
0.2804,-0.170505,1,402,-60
0.2805,-0.15798,1,402.5,-60
0.2806,-0.136566,1,403,-60
0.2807,-0.126869,1,403.5,-60
0.2808,-0.137374,1,404,-60
0.2809,-0.121212,1,404.5,-60
0.281,-0.122828,1,405,-60
0.2811,-0.121212,1,405.5,-60
0.2812,-0.11596,1,406,-60
0.2813,-0.117576,1,406.5,-60
0.2814,-0.0905051,1,407,-60
0.2815,-0.0824242,1,407.5,-60
0.2816,-0.0812121,1,408,-60
0.2817,-0.0787879,1,408.5,-60
0.2818,-0.0650505,1,409,-60
0.2819,-0.0476768,1,409.5,-60
0.282,-0.040404,1,410,-60
0.2821,-0.0513131,1,410.5,-60
0.2822,-0.0565657,1,411,-60
0.2823,-0.0557576,1,411.5,-60
0.2824,-0.0775758,1,412,-60
0.2825,-0.0856566,1,412.5,-60
0.2826,-0.122828,1,413,-60
0.2827,-0.180606,1,413.5,-60
0.2828,-0.145859,1,414,-60
0.2829,-0.153535,1,414.5,-60
0.283,-0.130505,1,415,-60
0.2831,-0.171313,1,415.5,-60
0.2832,-0.188283,1,416,-60
0.2833,-0.165253,1,416.5,-60
0.2834,-0.183434,1,417,-60
0.2835,-0.189899,1,417.5,-60
0.2836,-0.17899,1,418,-60
0.2837,-0.161212,1,418.5,-60
0.2838,-0.167273,1,419,-60
0.2839,-0.155556,1,419.5,-60
0.284,-0.159192,1,420,-60
0.2841,-0.158788,1,420.5,-60
0.2842,-0.148687,1,421,-60
0.2843,-0.138182,1,421.5,-60
0.2844,-0.129293,1,422,-60
0.2845,-0.135354,1,422.5,-60
0.2846,-0.126061,1,423,-60
0.2847,-0.124848,1,423.5,-60
0.2848,-0.121616,1,424,-60
0.2849,-0.0828283,1,424.5,-60
0.285,-0.040404,1,425,-60
0.2851,-0.040404,1,425.5,-60
0.2852,-0.040404,1,426,-60
0.2853,-0.0755556,1,426.5,-60
0.2854,-0.0743434,1,427,-60
0.2855,-0.070303,1,427.5,-60
0.2856,-0.0808081,1,428,-60
0.2857,-0.0852525,1,428.5,-60
0.2858,-0.0820202,1,429,-60
0.2859,-0.0824242,1,429.5,-60
0.286,-0.0832323,1,430,-60
0.2861,-0.105859,1,430.5,-60
0.2862,-0.118788,1,431,-60
0.2863,-0.125657,1,431.5,-60
0.2864,-0.121212,1,432,-60
0.2865,-0.123232,1,432.5,-60
0.2866,-0.146263,1,433,-60
0.2867,-0.174949,1,433.5,-60
0.2868,-0.195152,1,434,-60
0.2869,-0.201616,1,434.5,-60
0.287,-0.203636,1,435,-60
0.2871,-0.212929,1,435.5,-60
0.2872,-0.232323,1,436,-60
0.2873,-0.231515,1,436.5,-60
0.2874,-0.224242,1,437,-60
0.2875,-0.241212,1,437.5,-60
0.2876,-0.231111,1,438,-60
0.2877,-0.235556,1,438.5,-60
0.2878,-0.207273,1,439,-60
0.2879,-0.206061,1,439.5,-60
0.288,-0.202424,1,440,-60
0.2881,-0.20202,1,440.5,-60
0.2882,-0.199596,1,441,-60
0.2883,-0.196364,1,441.5,-60
0.2884,-0.188687,1,442,-60
0.2885,-0.165657,1,442.5,-60
0.2886,-0.128081,1,443,-60
0.2887,-0.125657,1,443.5,-60
0.2888,-0.121616,1,444,-60
0.2889,-0.121212,1,444.5,-60
0.289,-0.121212,1,445,-60
0.2891,-0.121212,1,445.5,-60
0.2892,-0.121212,1,446,-60
0.2893,-0.119596,1,446.5,-60
0.2894,-0.120808,1,447,-60
0.2895,-0.106263,1,447.5,-60
0.2896,-0.111919,1,448,-60
0.2897,-0.0909091,1,448.5,-60
0.2898,-0.0840404,1,449,-60
0.2899,-0.0585859,1,449.5,-60
0.29,-0.040404,1,450,-60
0.2901,-0.039596,1,450.5,-60
0.2902,-0.040404,1,451,-60
0.2903,-0.0379798,1,451.5,-60
0.2904,-0.039596,1,452,-60
0.2905,-0.000808081,1,452.5,-60
0.2906,-0.0181818,1,453,-60
0.2907,-0.0153535,1,453.5,-60
0.2908,0.000808081,1,454,-60
0.2909,0.00606061,1,454.5,-60
0.291,0.00444444,1,455,-60
0.2911,-0.00565657,1,455.5,-60
0.2912,-0.0290909,1,456,-60
0.2913,0.000808081,1,456.5,-60
0.2914,-0.00565657,1,457,-60
0.2915,-0.0206061,1,457.5,-60
0.2916,-0.0351515,1,458,-60
0.2917,-0.0379798,1,458.5,-60
0.2918,-0.040404,1,459,-60
0.2919,-0.0460606,1,459.5,-60
0.292,-0.0428283,1,460,-60
0.2921,-0.0460606,1,460.5,-60
0.2922,-0.0424242,1,461,-60
0.2923,-0.040404,1,461.5,-60
0.2924,-0.0412121,1,462,-60
0.2925,-0.0545455,1,462.5,-60
0.2926,-0.0961616,1,463,-60
0.2927,-0.0929293,1,463.5,-60
0.2928,-0.106667,1,464,-60
0.2929,-0.118788,1,464.5,-60
0.293,-0.128081,1,465,-60
0.2931,-0.127273,1,465.5,-60
0.2932,-0.121616,1,466,-60
0.2933,-0.12202,1,466.5,-60
0.2934,-0.121212,1,467,-60
0.2935,-0.137778,1,467.5,-60
0.2936,-0.151919,1,468,-60
0.2937,-0.154747,1,468.5,-60
0.2938,-0.166061,1,469,-60
0.2939,-0.172121,1,469.5,-60
0.294,-0.166869,1,470,-60
0.2941,-0.187071,1,470.5,-60
0.2942,-0.164848,1,471,-60
0.2943,-0.158384,1,471.5,-60
0.2944,-0.171313,1,472,-60
0.2945,-0.151515,1,472.5,-60
0.2946,-0.136566,1,473,-60
0.2947,-0.132929,1,473.5,-60
0.2948,-0.132525,1,474,-60
0.2949,-0.155556,1,474.5,-60
0.295,-0.153535,1,475,-60
0.2951,-0.143838,1,475.5,-60
0.2952,-0.153939,1,476,-60
0.2953,-0.153939,1,476.5,-60
0.2954,-0.130909,1,477,-60
0.2955,-0.12202,1,477.5,-60
0.2956,-0.121212,1,478,-60
0.2957,-0.121212,1,478.5,-60
0.2958,-0.121616,1,479,-60
0.2959,-0.121212,1,479.5,-60
0.296,-0.126061,1,480,-60
0.2961,-0.143838,1,480.5,-60
0.2962,-0.147071,1,481,-60
0.2963,-0.133737,1,481.5,-60
0.2964,-0.142626,1,482,-60
0.2965,-0.138586,1,482.5,-60
0.2966,-0.143838,1,483,-60
0.2967,-0.124848,1,483.5,-60
0.2968,-0.129293,1,484,-60
0.2969,-0.147475,1,484.5,-60
0.297,-0.156768,1,485,-60
0.2971,-0.145051,1,485.5,-60
0.2972,-0.149091,1,486,-60
0.2973,-0.14101,1,486.5,-60
0.2974,-0.122424,1,487,-60
0.2975,-0.128889,1,487.5,-60
0.2976,-0.14101,1,488,-60
0.2977,-0.141818,1,488.5,-60
0.2978,-0.136566,1,489,-60
0.2979,-0.12202,1,489.5,-60
0.298,-0.137374,1,490,-60
0.2981,-0.127273,1,490.5,-60
0.2982,-0.127273,1,491,-60
0.2983,-0.12202,1,491.5,-60
0.2984,-0.146263,1,492,-60
0.2985,-0.178182,1,492.5,-60
0.2986,-0.17899,1,493,-60
0.2987,-0.160404,1,493.5,-60
0.2988,-0.144242,1,494,-60
0.2989,-0.134545,1,494.5,-60
0.299,-0.163232,1,495,-60
0.2991,-0.158788,1,495.5,-60
0.2992,-0.165253,1,496,-60
0.2993,-0.16404,1,496.5,-60
0.2994,-0.163636,1,497,-60
0.2995,-0.183838,1,497.5,-60
0.2996,-0.187475,1,498,-60
0.2997,-0.169293,1,498.5,-60
0.2998,-0.160808,1,499,-60
0.2999,-0.148687,1,499.5,-60
0.3,-0.134141,1,500,-60
0.3001,-0.157576,1,500.5,-60
0.3002,-0.160404,1,501,-60
0.3003,-0.161212,1,501.5,-60
0.3004,-0.169697,1,502,-60
0.3005,-0.161212,1,502.5,-60
0.3006,-0.164444,1,503,-60
0.3007,-0.159192,1,503.5,-60
0.3008,-0.144242,1,504,-60
0.3009,-0.121212,1,504.5,-60
0.301,-0.120404,1,505,-60
0.3011,-0.121212,1,505.5,-60
0.3012,-0.120808,1,506,-60
0.3013,-0.121616,1,506.5,-60
0.3014,-0.12202,1,507,-60
0.3015,-0.12202,1,507.5,-60
0.3016,-0.118384,1,508,-60
0.3017,-0.12,1,508.5,-60
0.3018,-0.116768,1,509,-60
0.3019,-0.115152,1,509.5,-60
0.302,-0.119192,1,510,-60
0.3021,-0.100606,1,510.5,-60
0.3022,-0.121212,1,511,-60
0.3023,-0.120404,1,511.5,-60
0.3024,-0.122828,1,512,-60
0.3025,-0.121616,1,512.5,-60
0.3026,-0.120808,1,513,-60
0.3027,-0.128485,1,513.5,-60
0.3028,-0.121212,1,514,-60
0.3029,-0.121212,1,514.5,-60
0.303,-0.135354,1,515,-60
0.3031,-0.128081,1,515.5,-60
0.3032,-0.141414,1,516,-60
0.3033,-0.144242,1,516.5,-60
0.3034,-0.139394,1,517,-60
0.3035,-0.121616,1,517.5,-60
0.3036,-0.122424,1,518,-60
0.3037,-0.122424,1,518.5,-60
0.3038,-0.120808,1,519,-60
0.3039,-0.119596,1,519.5,-60
0.304,-0.103838,1,520,-60
0.3041,-0.0812121,1,520.5,-60
0.3042,-0.10101,1,521,-60
0.3043,-0.0905051,1,521.5,-60
0.3044,-0.116364,1,522,-60
0.3045,-0.0921212,1,522.5,-60
0.3046,-0.0892929,1,523,-60
0.3047,-0.0892929,1,523.5,-60
0.3048,-0.0921212,1,524,-60
0.3049,-0.0848485,1,524.5,-60
0.305,-0.109495,1,525,-60
0.3051,-0.0937374,1,525.5,-60
0.3052,-0.107071,1,526,-60
0.3053,-0.116364,1,526.5,-60
0.3054,-0.121212,1,527,-60
0.3055,-0.107879,1,527.5,-60
0.3056,-0.0961616,1,528,-60
0.3057,-0.0860606,1,528.5,-60
0.3058,-0.0820202,1,529,-60
0.3059,-0.100202,1,529.5,-60
0.306,-0.113939,1,530,-60
0.3061,-0.120808,1,530.5,-60
0.3062,-0.118788,1,531,-60
0.3063,-0.116768,1,531.5,-60
0.3064,-0.100606,1,532,-60
0.3065,-0.0981818,1,532.5,-60
0.3066,-0.111919,1,533,-60
0.3067,-0.121212,1,533.5,-60
0.3068,-0.114343,1,534,-60
0.3069,-0.0888889,1,534.5,-60
0.307,-0.110707,1,535,-60
0.3071,-0.121616,1,535.5,-60
0.3072,-0.115152,1,536,-60
0.3073,-0.120404,1,536.5,-60
0.3074,-0.12202,1,537,-60
0.3075,-0.121616,1,537.5,-60
0.3076,-0.121616,1,538,-60
0.3077,-0.121212,1,538.5,-60
0.3078,-0.119596,1,539,-60
0.3079,-0.120808,1,539.5,-60
0.308,-0.121616,1,540,-60
0.3081,-0.120404,1,540.5,-60
0.3082,-0.121212,1,541,-60
0.3083,-0.120808,1,541.5,-60
0.3084,-0.122424,1,542,-60
0.3085,-0.123636,1,542.5,-60
0.3086,-0.132929,1,543,-60
0.3087,-0.127273,1,543.5,-60
0.3088,-0.112323,1,544,-60
0.3089,-0.114747,1,544.5,-60
0.309,-0.121616,1,545,-60
0.3091,-0.123232,1,545.5,-60
0.3092,-0.130909,1,546,-60
0.3093,-0.12,1,546.5,-60
0.3094,-0.121212,1,547,-60
0.3095,-0.121212,1,547.5,-60
0.3096,-0.111919,1,548,-60
0.3097,-0.103838,1,548.5,-60
0.3098,-0.0985859,1,549,-60
0.3099,-0.0985859,1,549.5,-60
0.31,-0.0985859,1,550,-60
0.3101,-0.0844444,1,550.5,-60
0.3102,-0.0828283,1,551,-60
0.3103,-0.100202,1,551.5,-60
0.3104,-0.105859,1,552,-60
0.3105,-0.121616,1,552.5,-60
0.3106,-0.104646,1,553,-60
0.3107,-0.110303,1,553.5,-60
0.3108,-0.121616,1,554,-60
0.3109,-0.121212,1,554.5,-60
0.311,-0.138182,1,555,-60
0.3111,-0.185051,1,555.5,-60
0.3112,-0.163636,1,556,-60
0.3113,-0.156364,1,556.5,-60
0.3114,-0.166061,1,557,-60
0.3115,-0.13697,1,557.5,-60
0.3116,-0.126465,1,558,-60
0.3117,-0.130505,1,558.5,-60
0.3118,-0.12404,1,559,-60
0.3119,-0.125657,1,559.5,-60
0.312,-0.125253,1,560,-60
0.3121,-0.141818,1,560.5,-60
0.3122,-0.125253,1,561,-60
0.3123,-0.133737,1,561.5,-60
0.3124,-0.128081,1,562,-60
0.3125,-0.12202,1,562.5,-60
0.3126,-0.123232,1,563,-60
0.3127,-0.119596,1,563.5,-60
0.3128,-0.121212,1,564,-60
0.3129,-0.12202,1,564.5,-60
0.313,-0.120808,1,565,-60
0.3131,-0.119596,1,565.5,-60
0.3132,-0.124444,1,566,-60
0.3133,-0.128889,1,566.5,-60
0.3134,-0.124848,1,567,-60
0.3135,-0.120808,1,567.5,-60
0.3136,-0.116364,1,568,-60
0.3137,-0.113535,1,568.5,-60
0.3138,-0.111919,1,569,-60
0.3139,-0.108283,1,569.5,-60
0.314,-0.122828,1,570,-60
0.3141,-0.12202,1,570.5,-60
0.3142,-0.122828,1,571,-60
0.3143,-0.12404,1,571.5,-60
0.3144,-0.121212,1,572,-60
0.3145,-0.121212,1,572.5,-60
0.3146,-0.12,1,573,-60
0.3147,-0.118384,1,573.5,-60
0.3148,-0.113939,1,574,-60
0.3149,-0.109495,1,574.5,-60
0.315,-0.121212,1,575,-60
0.3151,-0.114343,1,575.5,-60
0.3152,-0.11596,1,576,-60
0.3153,-0.121212,1,576.5,-60
0.3154,-0.115556,1,577,-60
0.3155,-0.121616,1,577.5,-60
0.3156,-0.121212,1,578,-60
0.3157,-0.130909,1,578.5,-60
0.3158,-0.138182,1,579,-60
0.3159,-0.146667,1,579.5,-60
0.316,-0.163232,1,580,-60
0.3161,-0.180606,1,580.5,-60
0.3162,-0.175758,1,581,-60
0.3163,-0.175354,1,581.5,-60
0.3164,-0.161616,1,582,-60
0.3165,-0.166465,1,582.5,-60
0.3166,-0.161616,1,583,-60
0.3167,-0.151111,1,583.5,-60
0.3168,-0.152727,1,584,-60
0.3169,-0.155556,1,584.5,-60
0.317,-0.138586,1,585,-60
0.3171,-0.158788,1,585.5,-60
0.3172,-0.174141,1,586,-60
0.3173,-0.162828,1,586.5,-60
0.3174,-0.158788,1,587,-60
0.3175,-0.151919,1,587.5,-60
0.3176,-0.128485,1,588,-60
0.3177,-0.146667,1,588.5,-60
0.3178,-0.147071,1,589,-60
0.3179,-0.157172,1,589.5,-60
0.318,-0.149899,1,590,-60
0.3181,-0.161212,1,590.5,-60
0.3182,-0.167273,1,591,-60
0.3183,-0.164848,1,591.5,-60
0.3184,-0.150303,1,592,-60
0.3185,-0.143838,1,592.5,-60
0.3186,-0.162424,1,593,-60
0.3187,-0.139394,1,593.5,-60
0.3188,-0.132929,1,594,-60
0.3189,-0.14101,1,594.5,-60
0.319,-0.143434,1,595,-60
0.3191,-0.132121,1,595.5,-60
0.3192,-0.131717,1,596,-60
0.3193,-0.131717,1,596.5,-60
0.3194,-0.126061,1,597,-60
0.3195,-0.149899,1,597.5,-60
0.3196,-0.164848,1,598,-60
0.3197,-0.188687,1,598.5,-60
0.3198,-0.20202,1,599,-60
0.3199,-0.20202,1,599.5,-60
0.32,-0.201212,1,600,-60
0.3201,-0.199192,1,600.5,-60
0.3202,-0.20202,1,601,-60
0.3203,-0.201616,1,601.5,-60
0.3204,-0.2,1,602,-60
0.3205,-0.20202,1,602.5,-60
0.3206,-0.2,1,603,-60
0.3207,-0.199596,1,603.5,-60
0.3208,-0.167677,1,604,-60
0.3209,-0.160404,1,604.5,-60
0.321,-0.152727,1,605,-60
0.3211,-0.122424,1,605.5,-60
0.3212,-0.121212,1,606,-60
0.3213,-0.0957576,1,606.5,-60
0.3214,-0.0767677,1,607,-60
0.3215,-0.0484848,1,607.5,-60
0.3216,-0.040404,1,608,-60
0.3217,-0.030303,1,608.5,-60
0.3218,-0.0391919,1,609,-60
0.3219,-0.0335354,1,609.5,-60
0.322,-0.0379798,1,610,-60
0.3221,-0.040404,1,610.5,-60
0.3222,-0.029899,1,611,-60
0.3223,-0.00040404,1,611.5,-60
0.3224,0.000808081,1,612,-60
0.3225,-0.0274747,1,612.5,-60
0.3226,-0.0266667,1,613,-60
0.3227,-0.0391919,1,613.5,-60
0.3228,-0.0149495,1,614,-60
0.3229,-0.00484848,1,614.5,-60
0.323,-0.0282828,1,615,-60
0.3231,-0.029899,1,615.5,-60
0.3232,-0.0278788,1,616,-60
0.3233,-0.0371717,1,616.5,-60
0.3234,-0.0387879,1,617,-60
0.3235,-0.039596,1,617.5,-60
0.3236,-0.049697,1,618,-60
0.3237,-0.060202,1,618.5,-60
0.3238,-0.0735354,1,619,-60
0.3239,-0.0727273,1,619.5,-60
0.324,-0.0711111,1,620,-60
0.3241,-0.0650505,1,620.5,-60
0.3242,-0.0735354,1,621,-60
0.3243,-0.0836364,1,621.5,-60
0.3244,-0.0852525,1,622,-60
0.3245,-0.0905051,1,622.5,-60
0.3246,-0.117172,1,623,-60
0.3247,-0.112323,1,623.5,-60
0.3248,-0.121616,1,624,-60
0.3249,-0.12202,1,624.5,-60
0.325,-0.120808,1,625,-60
0.3251,-0.12,1,625.5,-60
0.3252,-0.12202,1,626,-60
0.3253,-0.134545,1,626.5,-60
0.3254,-0.137778,1,627,-60
0.3255,-0.138586,1,627.5,-60
0.3256,-0.122424,1,628,-60
0.3257,-0.125657,1,628.5,-60
0.3258,-0.124848,1,629,-60
0.3259,-0.154343,1,629.5,-60
0.326,-0.159192,1,630,-60
0.3261,-0.126061,1,630.5,-60
0.3262,-0.137374,1,631,-60
0.3263,-0.146667,1,631.5,-60
0.3264,-0.140606,1,632,-60
0.3265,-0.130909,1,632.5,-60
0.3266,-0.129293,1,633,-60
0.3267,-0.126869,1,633.5,-60
0.3268,-0.123232,1,634,-60
0.3269,-0.122424,1,634.5,-60
0.327,-0.121616,1,635,-60
0.3271,-0.119596,1,635.5,-60
0.3272,-0.120404,1,636,-60
0.3273,-0.121212,1,636.5,-60
0.3274,-0.121212,1,637,-60
0.3275,-0.121212,1,637.5,-60
0.3276,-0.127273,1,638,-60
0.3277,-0.133333,1,638.5,-60
0.3278,-0.14101,1,639,-60
0.3279,-0.139798,1,639.5,-60
0.328,-0.148283,1,640,-60
0.3281,-0.162828,1,640.5,-60
0.3282,-0.162424,1,641,-60
0.3283,-0.128889,1,641.5,-60
0.3284,-0.123232,1,642,-60
0.3285,-0.12404,1,642.5,-60
0.3286,-0.132121,1,643,-60
0.3287,-0.139394,1,643.5,-60
0.3288,-0.163232,1,644,-60
0.3289,-0.156768,1,644.5,-60
0.329,-0.177778,1,645,-60
0.3291,-0.161616,1,645.5,-60
0.3292,-0.151111,1,646,-60
0.3293,-0.145859,1,646.5,-60
0.3294,-0.132121,1,647,-60
0.3295,-0.130909,1,647.5,-60
0.3296,-0.123232,1,648,-60
0.3297,-0.12202,1,648.5,-60
0.3298,-0.134949,1,649,-60
0.3299,-0.126869,1,649.5,-60
0.33,-0.12202,1,650,-60
0.3301,-0.121616,1,650.5,-60
0.3302,-0.123232,1,651,-60
0.3303,-0.124444,1,651.5,-60
0.3304,-0.126061,1,652,-60
0.3305,-0.120404,1,652.5,-60
0.3306,-0.12202,1,653,-60
0.3307,-0.124444,1,653.5,-60
0.3308,-0.137374,1,654,-60
0.3309,-0.129697,1,654.5,-60
0.331,-0.12404,1,655,-60
0.3311,-0.121616,1,655.5,-60
0.3312,-0.123636,1,656,-60
0.3313,-0.129293,1,656.5,-60
0.3314,-0.127677,1,657,-60
0.3315,-0.121212,1,657.5,-60
0.3316,-0.122424,1,658,-60
0.3317,-0.119192,1,658.5,-60
0.3318,-0.120808,1,659,-60
0.3319,-0.120808,1,659.5,-60
0.332,-0.123232,1,660,-60
0.3321,-0.126465,1,660.5,-60
0.3322,-0.121212,1,661,-60
0.3323,-0.121616,1,661.5,-60
0.3324,-0.121212,1,662,-60
0.3325,-0.113535,1,662.5,-60
0.3326,-0.121616,1,663,-60
0.3327,-0.126869,1,663.5,-60
0.3328,-0.123636,1,664,-60
0.3329,-0.122828,1,664.5,-60
0.333,-0.149091,1,665,-60
0.3331,-0.183838,1,665.5,-60
0.3332,-0.169697,1,666,-60
0.3333,-0.154747,1,666.5,-60
0.3334,-0.15798,1,667,-60
0.3335,-0.160808,1,667.5,-60
0.3336,-0.174141,1,668,-60
0.3337,-0.164848,1,668.5,-60
0.3338,-0.149091,1,669,-60
0.3339,-0.155556,1,669.5,-60
0.334,-0.150303,1,670,-60
0.3341,-0.132929,1,670.5,-60
0.3342,-0.138182,1,671,-60
0.3343,-0.134949,1,671.5,-60
0.3344,-0.147071,1,672,-60
0.3345,-0.147071,1,672.5,-60
0.3346,-0.16404,1,673,-60
0.3347,-0.172525,1,673.5,-60
0.3348,-0.162828,1,674,-60
0.3349,-0.171717,1,674.5,-60
0.335,-0.160808,1,675,-60
0.3351,-0.149495,1,675.5,-60
0.3352,-0.132121,1,676,-60
0.3353,-0.155556,1,676.5,-60
0.3354,-0.152727,1,677,-60
0.3355,-0.126465,1,677.5,-60
0.3356,-0.12,1,678,-60
0.3357,-0.119192,1,678.5,-60
0.3358,-0.120808,1,679,-60
0.3359,-0.126869,1,679.5,-60
0.336,-0.12404,1,680,-60
0.3361,-0.122424,1,680.5,-60
0.3362,-0.121616,1,681,-60
0.3363,-0.124444,1,681.5,-60
0.3364,-0.145455,1,682,-60
0.3365,-0.14303,1,682.5,-60
0.3366,-0.164444,1,683,-60
0.3367,-0.184242,1,683.5,-60
0.3368,-0.184242,1,684,-60
0.3369,-0.169697,1,684.5,-60
0.337,-0.178586,1,685,-60
0.3371,-0.187879,1,685.5,-60
0.3372,-0.20202,1,686,-60
0.3373,-0.201212,1,686.5,-60
0.3374,-0.200808,1,687,-60
0.3375,-0.201212,1,687.5,-60
0.3376,-0.199596,1,688,-60
0.3377,-0.190303,1,688.5,-60
0.3378,-0.18101,1,689,-60
0.3379,-0.193939,1,689.5,-60
0.338,-0.19798,1,690,-60
0.3381,-0.165657,1,690.5,-60
0.3382,-0.153131,1,691,-60
0.3383,-0.121212,1,691.5,-60
0.3384,-0.120808,1,692,-60
0.3385,-0.116768,1,692.5,-60
0.3386,-0.11798,1,693,-60
0.3387,-0.0840404,1,693.5,-60
0.3388,-0.0848485,1,694,-60
0.3389,-0.0832323,1,694.5,-60
0.339,-0.0630303,1,695,-60
0.3391,-0.0626263,1,695.5,-60
0.3392,-0.0678788,1,696,-60
0.3393,-0.0593939,1,696.5,-60
0.3394,-0.039596,1,697,-60
0.3395,-0.0290909,1,697.5,-60
0.3396,-0.00484848,1,698,-60
0.3397,-0.0137374,1,698.5,-60
0.3398,0.0020202,1,699,-60
0.3399,-0.0226263,1,699.5,-60
0.34,-0.0020202,1,700,-60
0.3401,0.00686869,1,700.5,-60
0.3402,0.0250505,1,701,-60
0.3403,0.00161616,1,701.5,-60
0.3404,0.00444444,1,702,-60
0.3405,0.00808081,1,702.5,-60
0.3406,-0.00686869,1,703,-60
0.3407,-0.0157576,1,703.5,-60
0.3408,-0.0391919,1,704,-60
0.3409,-0.040404,1,704.5,-60
0.341,-0.0412121,1,705,-60
0.3411,-0.0654545,1,705.5,-60
0.3412,-0.080404,1,706,-60
0.3413,-0.0771717,1,706.5,-60
0.3414,-0.0783838,1,707,-60
0.3415,-0.0812121,1,707.5,-60
0.3416,-0.0816162,1,708,-60
0.3417,-0.0840404,1,708.5,-60
0.3418,-0.0832323,1,709,-60
0.3419,-0.0884848,1,709.5,-60
0.342,-0.109899,1,710,-60
0.3421,-0.12,1,710.5,-60
0.3422,-0.122424,1,711,-60
0.3423,-0.120808,1,711.5,-60
0.3424,-0.121212,1,712,-60
0.3425,-0.130505,1,712.5,-60
0.3426,-0.131717,1,713,-60
0.3427,-0.126869,1,713.5,-60
0.3428,-0.15798,1,714,-60
0.3429,-0.173333,1,714.5,-60
0.343,-0.159596,1,715,-60
0.3431,-0.174949,1,715.5,-60
0.3432,-0.179798,1,716,-60
0.3433,-0.183434,1,716.5,-60
0.3434,-0.16404,1,717,-60
0.3435,-0.153939,1,717.5,-60
0.3436,-0.164848,1,718,-60
0.3437,-0.176162,1,718.5,-60
0.3438,-0.180202,1,719,-60
0.3439,-0.166869,1,719.5,-60
0.344,-0.181414,1,720,-60
0.3441,-0.15596,1,720.5,-60
0.3442,-0.163636,1,721,-60
0.3443,-0.191111,1,721.5,-60
0.3444,-0.167273,1,722,-60
0.3445,-0.164444,1,722.5,-60
0.3446,-0.158384,1,723,-60
0.3447,-0.128889,1,723.5,-60
0.3448,-0.124848,1,724,-60
0.3449,-0.125657,1,724.5,-60
0.345,-0.121616,1,725,-60
0.3451,-0.136566,1,725.5,-60
0.3452,-0.15596,1,726,-60
0.3453,-0.129697,1,726.5,-60
0.3454,-0.133333,1,727,-60
0.3455,-0.127677,1,727.5,-60
0.3456,-0.121616,1,728,-60
0.3457,-0.122828,1,728.5,-60
0.3458,-0.121212,1,729,-60
0.3459,-0.119192,1,729.5,-60
0.346,-0.121212,1,730,-60
0.3461,-0.126465,1,730.5,-60
0.3462,-0.120808,1,731,-60
0.3463,-0.122828,1,731.5,-60
0.3464,-0.121212,1,732,-60
0.3465,-0.12,1,732.5,-60
0.3466,-0.122424,1,733,-60
0.3467,-0.12202,1,733.5,-60
0.3468,-0.120404,1,734,-60
0.3469,-0.123636,1,734.5,-60
0.347,-0.14303,1,735,-60
0.3471,-0.124444,1,735.5,-60
0.3472,-0.121616,1,736,-60
0.3473,-0.123636,1,736.5,-60
0.3474,-0.128081,1,737,-60
0.3475,-0.16,1,737.5,-60
0.3476,-0.15798,1,738,-60
0.3477,-0.156364,1,738.5,-60
0.3478,-0.170101,1,739,-60
0.3479,-0.174545,1,739.5,-60
0.348,-0.164444,1,740,-60
0.3481,-0.191515,1,740.5,-60
0.3482,-0.178586,1,741,-60
0.3483,-0.167273,1,741.5,-60
0.3484,-0.15798,1,742,-60
0.3485,-0.176162,1,742.5,-60
0.3486,-0.197576,1,743,-60
0.3487,-0.201212,1,743.5,-60
0.3488,-0.198384,1,744,-60
0.3489,-0.169293,1,744.5,-60
0.349,-0.174141,1,745,-60
0.3491,-0.163232,1,745.5,-60
0.3492,-0.164848,1,746,-60
0.3493,-0.151515,1,746.5,-60
0.3494,-0.145051,1,747,-60
0.3495,-0.151919,1,747.5,-60
0.3496,-0.13697,1,748,-60
0.3497,-0.124444,1,748.5,-60
0.3498,-0.120808,1,749,-60
0.3499,-0.112727,1,749.5,-60
0.35,-0.0953535,1,750,-60
0.3501,-0.0828283,1,750.5,-60
0.3502,-0.0759596,1,751,-60
0.3503,-0.0779798,1,751.5,-60
0.3504,-0.0513131,1,752,-60
0.3505,-0.0420202,1,752.5,-60
0.3506,-0.0517172,1,753,-60
0.3507,-0.0428283,1,753.5,-60
0.3508,-0.0436364,1,754,-60
0.3509,-0.0424242,1,754.5,-60
0.351,-0.0412121,1,755,-60
0.3511,-0.049697,1,755.5,-60
0.3512,-0.0408081,1,756,-60
0.3513,-0.0387879,1,756.5,-60
0.3514,-0.04,1,757,-60
0.3515,-0.0375758,1,757.5,-60
0.3516,-0.0319192,1,758,-60
0.3517,-0.040404,1,758.5,-60
0.3518,-0.0513131,1,759,-60
0.3519,-0.0472727,1,759.5,-60
0.352,-0.0456566,1,760,-60
0.3521,-0.0492929,1,760.5,-60
0.3522,-0.0662626,1,761,-60
0.3523,-0.0432323,1,761.5,-60
0.3524,-0.0690909,1,762,-60
0.3525,-0.0973737,1,762.5,-60
0.3526,-0.090101,1,763,-60
0.3527,-0.0909091,1,763.5,-60
0.3528,-0.0860606,1,764,-60
0.3529,-0.112727,1,764.5,-60
0.353,-0.118384,1,765,-60
0.3531,-0.107071,1,765.5,-60
0.3532,-0.119596,1,766,-60
0.3533,-0.123232,1,766.5,-60
0.3534,-0.118384,1,767,-60
0.3535,-0.100606,1,767.5,-60
0.3536,-0.112727,1,768,-60
0.3537,-0.114343,1,768.5,-60
0.3538,-0.121212,1,769,-60
0.3539,-0.121616,1,769.5,-60
0.354,-0.12404,1,770,-60
0.3541,-0.130505,1,770.5,-60
0.3542,-0.127273,1,771,-60
0.3543,-0.121212,1,771.5,-60
0.3544,-0.123636,1,772,-60
0.3545,-0.122424,1,772.5,-60
0.3546,-0.12202,1,773,-60
0.3547,-0.122828,1,773.5,-60
0.3548,-0.121616,1,774,-60
0.3549,-0.121616,1,774.5,-60
0.355,-0.132121,1,775,-60
0.3551,-0.126061,1,775.5,-60
0.3552,-0.125253,1,776,-60
0.3553,-0.121212,1,776.5,-60
0.3554,-0.12202,1,777,-60
0.3555,-0.149091,1,777.5,-60
0.3556,-0.158384,1,778,-60
0.3557,-0.152323,1,778.5,-60
0.3558,-0.16404,1,779,-60
0.3559,-0.140202,1,779.5,-60
0.356,-0.156768,1,780,-60
0.3561,-0.154747,1,780.5,-60
0.3562,-0.155152,1,781,-60
0.3563,-0.169293,1,781.5,-60
0.3564,-0.16,1,782,-60
0.3565,-0.144646,1,782.5,-60
0.3566,-0.130101,1,783,-60
0.3567,-0.12202,1,783.5,-60
0.3568,-0.130909,1,784,-60
0.3569,-0.157172,1,784.5,-60
0.357,-0.162828,1,785,-60
0.3571,-0.167677,1,785.5,-60
0.3572,-0.146263,1,786,-60
0.3573,-0.189091,1,786.5,-60
0.3574,-0.190707,1,787,-60
0.3575,-0.182626,1,787.5,-60
0.3576,-0.194747,1,788,-60
0.3577,-0.199596,1,788.5,-60
0.3578,-0.202828,1,789,-60
0.3579,-0.20404,1,789.5,-60
0.358,-0.206869,1,790,-60
0.3581,-0.224242,1,790.5,-60
0.3582,-0.213737,1,791,-60
0.3583,-0.212525,1,791.5,-60
0.3584,-0.203636,1,792,-60
0.3585,-0.20404,1,792.5,-60
0.3586,-0.20202,1,793,-60
0.3587,-0.20202,1,793.5,-60
0.3588,-0.19798,1,794,-60
0.3589,-0.20202,1,794.5,-60
0.359,-0.2,1,795,-60
0.3591,-0.2,1,795.5,-60
0.3592,-0.175354,1,796,-60
0.3593,-0.172121,1,796.5,-60
0.3594,-0.197576,1,797,-60
0.3595,-0.193939,1,797.5,-60
0.3596,-0.168485,1,798,-60
0.3597,-0.162424,1,798.5,-60
0.3598,-0.172929,1,799,-60
0.3599,-0.158384,1,799.5,-60
0.36,-0.159192,1,800,-60
0.3601,-0.131313,1,800.5,-60
0.3602,-0.12202,1,801,-60
0.3603,-0.127273,1,801.5,-60
0.3604,-0.129293,1,802,-60
0.3605,-0.122424,1,802.5,-60
0.3606,-0.120404,1,803,-60
0.3607,-0.11798,1,803.5,-60
0.3608,-0.12,1,804,-60
0.3609,-0.121212,1,804.5,-60
0.361,-0.121212,1,805,-60
0.3611,-0.121212,1,805.5,-60
0.3612,-0.118788,1,806,-60
0.3613,-0.121212,1,806.5,-60
0.3614,-0.122424,1,807,-60
0.3615,-0.121212,1,807.5,-60
0.3616,-0.121212,1,808,-60
0.3617,-0.113131,1,808.5,-60
0.3618,-0.118384,1,809,-60
0.3619,-0.107071,1,809.5,-60
0.362,-0.0755556,1,810,-60
0.3621,-0.059798,1,810.5,-60
0.3622,-0.0537374,1,811,-60
0.3623,-0.040404,1,811.5,-60
0.3624,-0.0513131,1,812,-60
0.3625,-0.0456566,1,812.5,-60
0.3626,-0.040404,1,813,-60
0.3627,-0.040404,1,813.5,-60
0.3628,-0.04,1,814,-60
0.3629,-0.0347475,1,814.5,-60
0.363,-0.0379798,1,815,-60
0.3631,-0.039596,1,815.5,-60
0.3632,-0.0274747,1,816,-60
0.3633,-0.00606061,1,816.5,-60
0.3634,-0.0315152,1,817,-60
0.3635,-0.0371717,1,817.5,-60
0.3636,-0.0391919,1,818,-60
0.3637,-0.04,1,818.5,-60
0.3638,-0.040404,1,819,-60
0.3639,-0.0731313,1,819.5,-60
0.364,-0.0872727,1,820,-60
0.3641,-0.0884848,1,820.5,-60
0.3642,-0.114343,1,821,-60
0.3643,-0.0981818,1,821.5,-60
0.3644,-0.0905051,1,822,-60
0.3645,-0.119596,1,822.5,-60
0.3646,-0.131313,1,823,-60
0.3647,-0.129697,1,823.5,-60
0.3648,-0.121212,1,824,-60
0.3649,-0.14303,1,824.5,-60
0.365,-0.147475,1,825,-60
0.3651,-0.185051,1,825.5,-60
0.3652,-0.182222,1,826,-60
0.3653,-0.151515,1,826.5,-60
0.3654,-0.174545,1,827,-60
0.3655,-0.184646,1,827.5,-60
0.3656,-0.201616,1,828,-60
0.3657,-0.200808,1,828.5,-60
0.3658,-0.200404,1,829,-60
0.3659,-0.187071,1,829.5,-60
0.366,-0.198384,1,830,-60
0.3661,-0.199596,1,830.5,-60
0.3662,-0.182626,1,831,-60
0.3663,-0.188687,1,831.5,-60
0.3664,-0.149091,1,832,-60
0.3665,-0.11596,1,832.5,-60
0.3666,-0.119192,1,833,-60
0.3667,-0.119192,1,833.5,-60
0.3668,-0.121212,1,834,-60
0.3669,-0.121212,1,834.5,-60
0.367,-0.124848,1,835,-60
0.3671,-0.101818,1,835.5,-60
0.3672,-0.121616,1,836,-60
0.3673,-0.134949,1,836.5,-60
0.3674,-0.128889,1,837,-60
0.3675,-0.127677,1,837.5,-60
0.3676,-0.130909,1,838,-60
0.3677,-0.123636,1,838.5,-60
0.3678,-0.122828,1,839,-60
0.3679,-0.117172,1,839.5,-60
0.368,-0.119192,1,840,-60
0.3681,-0.129293,1,840.5,-60
0.3682,-0.122828,1,841,-60
0.3683,-0.128889,1,841.5,-60
0.3684,-0.121212,1,842,-60
0.3685,-0.121212,1,842.5,-60
0.3686,-0.122424,1,843,-60
0.3687,-0.136162,1,843.5,-60
0.3688,-0.121616,1,844,-60
0.3689,-0.12404,1,844.5,-60
0.369,-0.128889,1,845,-60
0.3691,-0.152323,1,845.5,-60
0.3692,-0.16202,1,846,-60
0.3693,-0.14101,1,846.5,-60
0.3694,-0.13697,1,847,-60
0.3695,-0.149091,1,847.5,-60
0.3696,-0.169293,1,848,-60
0.3697,-0.172525,1,848.5,-60
0.3698,-0.179394,1,849,-60
0.3699,-0.147879,1,849.5,-60
0.37,-0.13697,1,850,-60
0.3701,-0.125657,1,850.5,-60
0.3702,-0.147475,1,851,-60
0.3703,-0.16,1,851.5,-60
0.3704,-0.164444,1,852,-60
0.3705,-0.196364,1,852.5,-60
0.3706,-0.166869,1,853,-60
0.3707,-0.131313,1,853.5,-60
0.3708,-0.121212,1,854,-60
0.3709,-0.122828,1,854.5,-60
0.371,-0.126061,1,855,-60
0.3711,-0.127677,1,855.5,-60
0.3712,-0.121212,1,856,-60
0.3713,-0.121616,1,856.5,-60
0.3714,-0.136566,1,857,-60
0.3715,-0.12404,1,857.5,-60
0.3716,-0.142626,1,858,-60
0.3717,-0.149091,1,858.5,-60
0.3718,-0.146263,1,859,-60
0.3719,-0.122424,1,859.5,-60
0.372,-0.128889,1,860,-60
0.3721,-0.136162,1,860.5,-60
0.3722,-0.167677,1,861,-60
0.3723,-0.149899,1,861.5,-60
0.3724,-0.164848,1,862,-60
0.3725,-0.151515,1,862.5,-60
0.3726,-0.149495,1,863,-60
0.3727,-0.165253,1,863.5,-60
0.3728,-0.15798,1,864,-60
0.3729,-0.156364,1,864.5,-60
0.373,-0.165253,1,865,-60
0.3731,-0.14303,1,865.5,-60
0.3732,-0.124444,1,866,-60
0.3733,-0.122828,1,866.5,-60
0.3734,-0.121616,1,867,-60
0.3735,-0.121212,1,867.5,-60
0.3736,-0.121212,1,868,-60
0.3737,-0.121212,1,868.5,-60
0.3738,-0.121616,1,869,-60
0.3739,-0.123232,1,869.5,-60
0.374,-0.118384,1,870,-60
0.3741,-0.128485,1,870.5,-60
0.3742,-0.12404,1,871,-60
0.3743,-0.121212,1,871.5,-60
0.3744,-0.137374,1,872,-60
0.3745,-0.132929,1,872.5,-60
0.3746,-0.119596,1,873,-60
0.3747,-0.099798,1,873.5,-60
0.3748,-0.119192,1,874,-60
0.3749,-0.121616,1,874.5,-60
0.375,-0.125657,1,875,-60
0.3751,-0.134949,1,875.5,-60
0.3752,-0.152727,1,876,-60
0.3753,-0.157576,1,876.5,-60
0.3754,-0.135758,1,877,-60
0.3755,-0.144242,1,877.5,-60
0.3756,-0.141818,1,878,-60
0.3757,-0.130101,1,878.5,-60
0.3758,-0.139394,1,879,-60
0.3759,-0.153131,1,879.5,-60
0.376,-0.149091,1,880,-60
0.3761,-0.144242,1,880.5,-60
0.3762,-0.143434,1,881,-60
0.3763,-0.134141,1,881.5,-60
0.3764,-0.138182,1,882,-60
0.3765,-0.143434,1,882.5,-60
0.3766,-0.142626,1,883,-60
0.3767,-0.149899,1,883.5,-60
0.3768,-0.137778,1,884,-60
0.3769,-0.129697,1,884.5,-60
0.377,-0.16,1,885,-60
0.3771,-0.155152,1,885.5,-60
0.3772,-0.150707,1,886,-60
0.3773,-0.123232,1,886.5,-60
0.3774,-0.125253,1,887,-60
0.3775,-0.122424,1,887.5,-60
0.3776,-0.12404,1,888,-60
0.3777,-0.122424,1,888.5,-60
0.3778,-0.121212,1,889,-60
0.3779,-0.121616,1,889.5,-60
0.378,-0.126465,1,890,-60
0.3781,-0.142222,1,890.5,-60
0.3782,-0.142626,1,891,-60
0.3783,-0.168485,1,891.5,-60
0.3784,-0.144646,1,892,-60
0.3785,-0.12202,1,892.5,-60
0.3786,-0.111111,1,893,-60
0.3787,-0.100202,1,893.5,-60
0.3788,-0.102222,1,894,-60
0.3789,-0.104242,1,894.5,-60
0.379,-0.103434,1,895,-60
0.3791,-0.12,1,895.5,-60
0.3792,-0.121212,1,896,-60
0.3793,-0.120808,1,896.5,-60
0.3794,-0.123232,1,897,-60
0.3795,-0.142222,1,897.5,-60
0.3796,-0.147879,1,898,-60
0.3797,-0.147071,1,898.5,-60
0.3798,-0.166465,1,899,-60
0.3799,-0.192727,1,899.5,-60
0.38,-0.201616,1,900,-60
0.3801,-0.201616,1,900.5,-60
0.3802,-0.20202,1,901,-60
0.3803,-0.196768,1,901.5,-60
0.3804,-0.20202,1,902,-60
0.3805,-0.205253,1,902.5,-60
0.3806,-0.214141,1,903,-60
0.3807,-0.2,1,903.5,-60
0.3808,-0.201616,1,904,-60
0.3809,-0.192323,1,904.5,-60
0.381,-0.169697,1,905,-60
0.3811,-0.18303,1,905.5,-60
0.3812,-0.163636,1,906,-60
0.3813,-0.158384,1,906.5,-60
0.3814,-0.157172,1,907,-60
0.3815,-0.148283,1,907.5,-60
0.3816,-0.146263,1,908,-60
0.3817,-0.126061,1,908.5,-60
0.3818,-0.121212,1,909,-60
0.3819,-0.118788,1,909.5,-60
0.382,-0.114747,1,910,-60
0.3821,-0.101414,1,910.5,-60
0.3822,-0.0735354,1,911,-60
0.3823,-0.0565657,1,911.5,-60
0.3824,-0.050101,1,912,-60
0.3825,-0.0525253,1,912.5,-60
0.3826,-0.040404,1,913,-60
0.3827,-0.0428283,1,913.5,-60
0.3828,-0.04,1,914,-60
0.3829,-0.0367677,1,914.5,-60
0.383,-0.040404,1,915,-60
0.3831,-0.0412121,1,915.5,-60
0.3832,-0.0488889,1,916,-60
0.3833,-0.0436364,1,916.5,-60
0.3834,-0.040404,1,917,-60
0.3835,-0.0408081,1,917.5,-60
0.3836,-0.0448485,1,918,-60
0.3837,-0.0771717,1,918.5,-60
0.3838,-0.0884848,1,919,-60
0.3839,-0.0759596,1,919.5,-60
0.384,-0.0808081,1,920,-60
0.3841,-0.0783838,1,920.5,-60
0.3842,-0.080404,1,921,-60
0.3843,-0.0856566,1,921.5,-60
0.3844,-0.0812121,1,922,-60
0.3845,-0.0856566,1,922.5,-60
0.3846,-0.0824242,1,923,-60
0.3847,-0.0755556,1,923.5,-60
0.3848,-0.0690909,1,924,-60
0.3849,-0.0690909,1,924.5,-60
0.385,-0.079596,1,925,-60
0.3851,-0.080404,1,925.5,-60
0.3852,-0.0808081,1,926,-60
0.3853,-0.0828283,1,926.5,-60
0.3854,-0.0767677,1,927,-60
0.3855,-0.0812121,1,927.5,-60
0.3856,-0.0852525,1,928,-60
0.3857,-0.10101,1,928.5,-60
0.3858,-0.0957576,1,929,-60
0.3859,-0.152727,1,929.5,-60
0.386,-0.183838,1,930,-60
0.3861,-0.19798,1,930.5,-60
0.3862,-0.191515,1,931,-60
0.3863,-0.178182,1,931.5,-60
0.3864,-0.197576,1,932,-60
0.3865,-0.194747,1,932.5,-60
0.3866,-0.196768,1,933,-60
0.3867,-0.194747,1,933.5,-60
0.3868,-0.20202,1,934,-60
0.3869,-0.205657,1,934.5,-60
0.387,-0.20202,1,935,-60
0.3871,-0.225051,1,935.5,-60
0.3872,-0.241616,1,936,-60
0.3873,-0.24,1,936.5,-60
0.3874,-0.223434,1,937,-60
0.3875,-0.223434,1,937.5,-60
0.3876,-0.202424,1,938,-60
0.3877,-0.20202,1,938.5,-60
0.3878,-0.205253,1,939,-60
0.3879,-0.195556,1,939.5,-60
0.388,-0.198384,1,940,-60
0.3881,-0.192323,1,940.5,-60
0.3882,-0.125657,1,941,-60
0.3883,-0.120404,1,941.5,-60
0.3884,-0.106667,1,942,-60
0.3885,-0.0812121,1,942.5,-60
0.3886,-0.0824242,1,943,-60
0.3887,-0.0735354,1,943.5,-60
0.3888,-0.0783838,1,944,-60
0.3889,-0.0642424,1,944.5,-60
0.389,-0.0650505,1,945,-60
0.3891,-0.0650505,1,945.5,-60
0.3892,-0.0711111,1,946,-60
0.3893,-0.0824242,1,946.5,-60
0.3894,-0.0973737,1,947,-60
0.3895,-0.0921212,1,947.5,-60
0.3896,-0.0864646,1,948,-60
0.3897,-0.0969697,1,948.5,-60
0.3898,-0.104646,1,949,-60
0.3899,-0.0868687,1,949.5,-60
0.39,-0.109091,1,950,-60
0.3901,-0.116768,1,950.5,-60
0.3902,-0.121212,1,951,-60
0.3903,-0.122828,1,951.5,-60
0.3904,-0.121212,1,952,-60
0.3905,-0.12,1,952.5,-60
0.3906,-0.118788,1,953,-60
0.3907,-0.113131,1,953.5,-60
0.3908,-0.0824242,1,954,-60
0.3909,-0.109495,1,954.5,-60
0.391,-0.118788,1,955,-60
0.3911,-0.121212,1,955.5,-60
0.3912,-0.108283,1,956,-60
0.3913,-0.106263,1,956.5,-60
0.3914,-0.105859,1,957,-60
0.3915,-0.0973737,1,957.5,-60
0.3916,-0.0937374,1,958,-60
0.3917,-0.0961616,1,958.5,-60
0.3918,-0.121212,1,959,-60
0.3919,-0.124848,1,959.5,-60
0.392,-0.123232,1,960,-60
0.3921,-0.130101,1,960.5,-60
0.3922,-0.130909,1,961,-60
0.3923,-0.131717,1,961.5,-60
0.3924,-0.136162,1,962,-60
0.3925,-0.146667,1,962.5,-60
0.3926,-0.135758,1,963,-60
0.3927,-0.128485,1,963.5,-60
0.3928,-0.140202,1,964,-60
0.3929,-0.138586,1,964.5,-60
0.393,-0.159192,1,965,-60
0.3931,-0.165657,1,965.5,-60
0.3932,-0.174949,1,966,-60
0.3933,-0.125657,1,966.5,-60
0.3934,-0.127677,1,967,-60
0.3935,-0.121616,1,967.5,-60
0.3936,-0.12202,1,968,-60
0.3937,-0.128081,1,968.5,-60
0.3938,-0.121616,1,969,-60
0.3939,-0.130101,1,969.5,-60
0.394,-0.100202,1,970,-60
0.3941,-0.108283,1,970.5,-60
0.3942,-0.120808,1,971,-60
0.3943,-0.122424,1,971.5,-60
0.3944,-0.122424,1,972,-60
0.3945,-0.128081,1,972.5,-60
0.3946,-0.141414,1,973,-60
0.3947,-0.159192,1,973.5,-60
0.3948,-0.165253,1,974,-60
0.3949,-0.134949,1,974.5,-60
0.395,-0.170505,1,975,-60
0.3951,-0.159596,1,975.5,-60
0.3952,-0.138586,1,976,-60
0.3953,-0.140606,1,976.5,-60
0.3954,-0.144242,1,977,-60
0.3955,-0.126869,1,977.5,-60
0.3956,-0.122828,1,978,-60
0.3957,-0.121212,1,978.5,-60
0.3958,-0.121212,1,979,-60
0.3959,-0.121616,1,979.5,-60
0.396,-0.121212,1,980,-60
0.3961,-0.121212,1,980.5,-60
0.3962,-0.122828,1,981,-60
0.3963,-0.125253,1,981.5,-60
0.3964,-0.142626,1,982,-60
0.3965,-0.125253,1,982.5,-60
0.3966,-0.123232,1,983,-60
0.3967,-0.149899,1,983.5,-60
0.3968,-0.126869,1,984,-60
0.3969,-0.129293,1,984.5,-60
0.397,-0.12404,1,985,-60
0.3971,-0.121212,1,985.5,-60
0.3972,-0.127677,1,986,-60
0.3973,-0.149091,1,986.5,-60
0.3974,-0.172525,1,987,-60
0.3975,-0.194747,1,987.5,-60
0.3976,-0.198384,1,988,-60
0.3977,-0.194343,1,988.5,-60
0.3978,-0.197576,1,989,-60
0.3979,-0.200404,1,989.5,-60
0.398,-0.189899,1,990,-60
0.3981,-0.20202,1,990.5,-60
0.3982,-0.199192,1,991,-60
0.3983,-0.174949,1,991.5,-60
0.3984,-0.155556,1,992,-60
0.3985,-0.130909,1,992.5,-60
0.3986,-0.134545,1,993,-60
0.3987,-0.136566,1,993.5,-60
0.3988,-0.149899,1,994,-60
0.3989,-0.148687,1,994.5,-60
0.399,-0.131717,1,995,-60
0.3991,-0.12202,1,995.5,-60
0.3992,-0.127273,1,996,-60
0.3993,-0.13899,1,996.5,-60
0.3994,-0.128081,1,997,-60
0.3995,-0.127677,1,997.5,-60
0.3996,-0.139798,1,998,-60
0.3997,-0.134141,1,998.5,-60
0.3998,-0.131717,1,999,-60
0.3999,-0.131717,1,999.5,-60
0.4,-0.154343,2,000,-60
0.4001,-0.140202,2,000.5,-60
0.4002,-0.15596,2,001,-60
0.4003,-0.151111,2,001.5,-60
0.4004,-0.151111,2,002,-60
0.4005,-0.149091,2,002.5,-60
0.4006,-0.127677,2,003,-60
0.4007,-0.141818,2,003.5,-60
0.4008,-0.144242,2,004,-60
0.4009,-0.128889,2,004.5,-60
0.401,-0.120808,2,005,-60
0.4011,-0.107071,2,005.5,-60
0.4012,-0.080404,2,006,-60
0.4013,-0.0589899,2,006.5,-60
0.4014,-0.040404,2,007,-60
0.4015,-0.029899,2,007.5,-60
0.4016,-0.0133333,2,008,-60
0.4017,0.0286869,2,008.5,-60
0.4018,0.0440404,2,009,-60
0.4019,0.0682828,2,009.5,-60
0.402,0.0533333,2,010,-60
0.4021,0.0428283,2,010.5,-60
0.4022,0.0638384,2,011,-60
0.4023,0.0488889,2,011.5,-60
0.4024,0.050101,2,012,-60
0.4025,0.0468687,2,012.5,-60
0.4026,0.0618182,2,013,-60
0.4027,0.040404,2,013.5,-60
0.4028,0.0371717,2,014,-60
0.4029,0.0343434,2,014.5,-60
0.403,0.010101,2,015,-60
0.4031,-0.0436364,2,015.5,-60
0.4032,-0.050101,2,016,-60
0.4033,-0.0723232,2,016.5,-60
0.4034,-0.107071,2,017,-60
0.4035,-0.118384,2,017.5,-60
0.4036,-0.136566,2,018,-60
0.4037,-0.158788,2,018.5,-60
0.4038,-0.190707,2,019,-60
0.4039,-0.200808,2,019.5,-60
0.404,-0.201212,2,020,-60
0.4041,-0.201616,2,020.5,-60
0.4042,-0.201616,2,021,-60
0.4043,-0.202424,2,021.5,-60
0.4044,-0.218586,2,022,-60
0.4045,-0.212525,2,022.5,-60
0.4046,-0.21697,2,023,-60
0.4047,-0.210505,2,023.5,-60
0.4048,-0.204444,2,024,-60
0.4049,-0.202424,2,024.5,-60
0.405,-0.209293,2,025,-60
0.4051,-0.208081,2,025.5,-60
0.4052,-0.204444,2,026,-60
0.4053,-0.20202,2,026.5,-60
0.4054,-0.20202,2,027,-60
0.4055,-0.170101,2,027.5,-60
0.4056,-0.199596,2,028,-60
0.4057,-0.185859,2,028.5,-60
0.4058,-0.146263,2,029,-60
0.4059,-0.147475,2,029.5,-60
0.406,-0.160808,2,030,-60
0.4061,-0.164444,2,030.5,-60
0.4062,-0.182626,2,031,-60
0.4063,-0.176162,2,031.5,-60
0.4064,-0.162828,2,032,-60
0.4065,-0.131313,2,032.5,-60
0.4066,-0.121212,2,033,-60
0.4067,-0.120808,2,033.5,-60
0.4068,-0.124444,2,034,-60
0.4069,-0.131313,2,034.5,-60
0.407,-0.11596,2,035,-60
0.4071,-0.0941414,2,035.5,-60
0.4072,-0.105051,2,036,-60
0.4073,-0.10101,2,036.5,-60
0.4074,-0.112323,2,037,-60
0.4075,-0.120808,2,037.5,-60
0.4076,-0.119192,2,038,-60
0.4077,-0.111111,2,038.5,-60
0.4078,-0.109495,2,039,-60
0.4079,-0.113535,2,039.5,-60
0.408,-0.102222,2,040,-60
0.4081,-0.0925253,2,040.5,-60
0.4082,-0.0941414,2,041,-60
0.4083,-0.118384,2,041.5,-60
0.4084,-0.126465,2,042,-60
0.4085,-0.124444,2,042.5,-60
0.4086,-0.118788,2,043,-60
0.4087,-0.111515,2,043.5,-60
0.4088,-0.0864646,2,044,-60
0.4089,-0.111515,2,044.5,-60
0.409,-0.117576,2,045,-60
0.4091,-0.12404,2,045.5,-60
0.4092,-0.140202,2,046,-60
0.4093,-0.125657,2,046.5,-60
0.4094,-0.121616,2,047,-60
0.4095,-0.121212,2,047.5,-60
0.4096,-0.112727,2,048,-60
0.4097,-0.120808,2,048.5,-60
0.4098,-0.135758,2,049,-60
0.4099,-0.132525,2,049.5,-60
0.41,-0.126465,2,050,-60
0.4101,-0.150707,2,050.5,-60
0.4102,-0.164848,2,051,-60
0.4103,-0.148687,2,051.5,-60
0.4104,-0.16202,2,052,-60
0.4105,-0.153939,2,052.5,-60
0.4106,-0.161616,2,053,-60
0.4107,-0.159596,2,053.5,-60
0.4108,-0.170101,2,054,-60
0.4109,-0.196768,2,054.5,-60
0.411,-0.196768,2,055,-60
0.4111,-0.190303,2,055.5,-60
0.4112,-0.201616,2,056,-60
0.4113,-0.206061,2,056.5,-60
0.4114,-0.203232,2,057,-60
0.4115,-0.206061,2,057.5,-60
0.4116,-0.20202,2,058,-60
0.4117,-0.200404,2,058.5,-60
0.4118,-0.206465,2,059,-60
0.4119,-0.210101,2,059.5,-60
0.412,-0.204848,2,060,-60
0.4121,-0.203636,2,060.5,-60
0.4122,-0.201616,2,061,-60
0.4123,-0.182222,2,061.5,-60
0.4124,-0.172929,2,062,-60
0.4125,-0.188283,2,062.5,-60
0.4126,-0.193131,2,063,-60
0.4127,-0.200808,2,063.5,-60
0.4128,-0.178586,2,064,-60
0.4129,-0.174545,2,064.5,-60
0.413,-0.159596,2,065,-60
0.4131,-0.160808,2,065.5,-60
0.4132,-0.141414,2,066,-60
0.4133,-0.103434,2,066.5,-60
0.4134,-0.0909091,2,067,-60
0.4135,-0.0824242,2,067.5,-60
0.4136,-0.090101,2,068,-60
0.4137,-0.103434,2,068.5,-60
0.4138,-0.0973737,2,069,-60
0.4139,-0.0832323,2,069.5,-60
0.414,-0.0905051,2,070,-60
0.4141,-0.0969697,2,070.5,-60
0.4142,-0.099798,2,071,-60
0.4143,-0.0848485,2,071.5,-60
0.4144,-0.0751515,2,072,-60
0.4145,-0.0658586,2,072.5,-60
0.4146,-0.08,2,073,-60
0.4147,-0.0743434,2,073.5,-60
0.4148,-0.0751515,2,074,-60
0.4149,-0.080404,2,074.5,-60
0.415,-0.080404,2,075,-60
0.4151,-0.0739394,2,075.5,-60
0.4152,-0.0525253,2,076,-60
0.4153,-0.0424242,2,076.5,-60
0.4154,-0.0428283,2,077,-60
0.4155,-0.0549495,2,077.5,-60
0.4156,-0.0448485,2,078,-60
0.4157,-0.0618182,2,078.5,-60
0.4158,-0.0545455,2,079,-60
0.4159,-0.0561616,2,079.5,-60
0.416,-0.0593939,2,080,-60
0.4161,-0.040404,2,080.5,-60
0.4162,-0.040404,2,081,-60
0.4163,-0.0412121,2,081.5,-60
0.4164,-0.0416162,2,082,-60
0.4165,-0.040404,2,082.5,-60
0.4166,-0.04,2,083,-60
0.4167,-0.040404,2,083.5,-60
0.4168,-0.0484848,2,084,-60
0.4169,-0.0492929,2,084.5,-60
0.417,-0.0408081,2,085,-60
0.4171,-0.0420202,2,085.5,-60
0.4172,-0.0436364,2,086,-60
0.4173,-0.0412121,2,086.5,-60
0.4174,-0.0541414,2,087,-60
0.4175,-0.0577778,2,087.5,-60
0.4176,-0.0585859,2,088,-60
0.4177,-0.079596,2,088.5,-60
0.4178,-0.0820202,2,089,-60
0.4179,-0.10303,2,089.5,-60
0.418,-0.120808,2,090,-60
0.4181,-0.121212,2,090.5,-60
0.4182,-0.121212,2,091,-60
0.4183,-0.124444,2,091.5,-60
0.4184,-0.13697,2,092,-60
0.4185,-0.157576,2,092.5,-60
0.4186,-0.15798,2,093,-60
0.4187,-0.168081,2,093.5,-60
0.4188,-0.167677,2,094,-60
0.4189,-0.137778,2,094.5,-60
0.419,-0.130909,2,095,-60
0.4191,-0.183838,2,095.5,-60
0.4192,-0.176566,2,096,-60
0.4193,-0.193131,2,096.5,-60
0.4194,-0.178182,2,097,-60
0.4195,-0.166869,2,097.5,-60
0.4196,-0.179798,2,098,-60
0.4197,-0.197172,2,098.5,-60
0.4198,-0.159596,2,099,-60
0.4199,-0.166869,2,099.5,-60
0.42,-0.169293,2,100,-60
0.4201,-0.151919,2,100.5,-60
0.4202,-0.129697,2,101,-60
0.4203,-0.127677,2,101.5,-60
0.4204,-0.137778,2,102,-60
0.4205,-0.146263,2,102.5,-60
0.4206,-0.122424,2,103,-60
0.4207,-0.136162,2,103.5,-60
0.4208,-0.147475,2,104,-60
0.4209,-0.157172,2,104.5,-60
0.421,-0.160404,2,105,-60
0.4211,-0.127677,2,105.5,-60
0.4212,-0.123636,2,106,-60
0.4213,-0.121212,2,106.5,-60
0.4214,-0.110303,2,107,-60
0.4215,-0.115556,2,107.5,-60
0.4216,-0.121616,2,108,-60
0.4217,-0.12202,2,108.5,-60
0.4218,-0.121616,2,109,-60
0.4219,-0.120404,2,109.5,-60
0.422,-0.121212,2,110,-60
0.4221,-0.121212,2,110.5,-60
0.4222,-0.122828,2,111,-60
0.4223,-0.121212,2,111.5,-60
0.4224,-0.121616,2,112,-60
0.4225,-0.134949,2,112.5,-60
0.4226,-0.140606,2,113,-60
0.4227,-0.144646,2,113.5,-60
0.4228,-0.130909,2,114,-60
0.4229,-0.159192,2,114.5,-60
0.423,-0.176162,2,115,-60
0.4231,-0.165657,2,115.5,-60
0.4232,-0.164848,2,116,-60
0.4233,-0.15596,2,116.5,-60
0.4234,-0.163636,2,117,-60
