"t / s","CH1 / V","f / Hz","SP1 / dB"
0,-0.269495,0,-60
0.0001,-0.282828,0.5,-56.651
0.0002,-0.284444,1,-51.8722
0.0003,-0.271111,1.5,-48.6917
0.0004,-0.302222,2,-51.7431
0.0005,-0.632727,2.5,-60
0.0006,-0.913939,3,-54.0975
0.0007,-1.06747,3.5,-49.1255
0.0008,-1.15636,4,-43.7979
0.0009,-1.19354,4.5,-43.5796
0.001,-1.17455,5,-48.1718
0.0011,-1.16808,5.5,-58.966
0.0012,-1.12687,6,-54.2146
0.0013,-1.12646,6.5,-52.4273
0.0014,-1.07596,7,-60
0.0015,-1.01414,7.5,-47.14
0.0016,-0.970101,8,-38.7632
0.0017,-0.957172,8.5,-33.8952
0.0018,-0.910303,9,-31.6276
0.0019,-0.887273,9.5,-31.3651
0.002,-0.880404,10,-32.4533
0.0021,-0.850505,10.5,-31.7535
0.0022,-0.832323,11,-34.1748
0.0023,-0.797576,11.5,-42.1503
0.0024,-0.756364,12,-32.5026
0.0025,-0.723232,12.5,-26.9897
0.0026,-0.690909,13,-24.5525
0.0027,-0.565657,13.5,-23.7518
0.0028,-0.196364,14,-23.6043
0.0029,0.00808081,14.5,-24.2795
0.003,0.118384,15,-25.2402
0.0031,0.165253,15.5,-26.7008
0.0032,0.175758,16,-28.8699
0.0033,0.175758,16.5,-32.7519
0.0034,0.182626,17,-39.6046
0.0035,0.180202,17.5,-45.3032
0.0036,0.16202,18,-41.3582
0.0037,0.128485,18.5,-34.3681
0.0038,0.0840404,19,-30.3208
0.0039,0.0876768,19.5,-27.2224
0.004,0.0961616,20,-25.2567
0.0041,0.0775758,20.5,-23.9792
0.0042,0.0690909,21,-22.4576
0.0043,0.04,21.5,-21.7538
0.0044,0,22,-22.1262
0.0045,-0.0363636,22.5,-22.6289
0.0046,-0.0428283,23,-23.1445
0.0047,-0.0375758,23.5,-23.8079
0.0048,-0.050101,24,-24.0198
0.0049,-0.0557576,24.5,-24.0362
0.005,-0.0767677,25,-25.3623
0.0051,-0.0989899,25.5,-26.6775
0.0052,-0.111111,26,-26.7538
0.0053,-0.132525,26.5,-27.3232
0.0054,-0.154343,27,-28.0122
0.0055,-0.159596,27.5,-27.5595
0.0056,-0.162828,28,-27.584
0.0057,-0.155152,28.5,-27.6493
0.0058,-0.128889,29,-29.6859
0.0059,-0.122828,29.5,-35.405
0.006,-0.139798,30,-34.5005
0.0061,-0.160404,30.5,-31.3244
0.0062,-0.158384,31,-32.7646
0.0063,-0.136162,31.5,-36.898
0.0064,-0.13899,32,-35.9469
0.0065,-0.158788,32.5,-30.769
0.0066,-0.169697,33,-29.0643
0.0067,-0.2,33.5,-28.0986
0.0068,-0.216162,34,-26.7677
0.0069,-0.245657,34.5,-25.7669
0.007,-0.279596,35,-26.7072
0.0071,-0.289293,35.5,-28.5162
0.0072,-0.299394,36,-28.6668
0.0073,-0.301818,36.5,-27.4968
0.0074,-0.289293,37,-26.8206
0.0075,-0.324444,37.5,-26.2755
0.0076,-0.353939,38,-25.597
0.0077,-0.364444,38.5,-24.6791
0.0078,-0.362828,39,-22.4903
0.0079,-0.358384,39.5,-20.7828
0.008,-0.358788,40,-20.3092
0.0081,-0.357172,40.5,-20.7821
0.0082,-0.351111,41,-22.3543
0.0083,-0.363636,41.5,-27.6498
0.0084,-0.358788,42,-34.6105
0.0085,-0.347879,42.5,-29.0102
0.0086,-0.348283,43,-24.3825
0.0087,-0.363636,43.5,-23.1023
0.0088,-0.362828,44,-23.0905
0.0089,-0.363636,44.5,-24.8248
0.009,-0.34101,45,-28.4497
0.0091,-0.321212,45.5,-29.9331
0.0092,-0.356768,46,-28.6324
0.0093,-0.362424,46.5,-27.4111
0.0094,-0.361212,47,-25.2577
0.0095,-0.328485,47.5,-24.8913
0.0096,-0.330505,48,-26.8635
0.0097,-0.334141,48.5,-39.0425
0.0098,-0.34101,49,-27.4074
0.0099,-0.359596,49.5,-22.3913
0.01,-0.36404,50,-22.0935
0.0101,-0.389495,50.5,-22.2408
0.0102,-0.391919,51,-23.3607
0.0103,-0.381414,51.5,-25.983
0.0104,-0.389091,52,-26.4557
0.0105,-0.363232,52.5,-24.0327
0.0106,-0.357172,53,-22.7271
0.0107,-0.363636,53.5,-21.989
0.0108,-0.358788,54,-22.2011
0.0109,-0.345859,54.5,-22.5288
0.011,-0.331717,55,-22.1031
0.0111,-0.29697,55.5,-21.9333
0.0112,-0.283232,56,-23.4286
0.0113,-0.280404,56.5,-24.4516
0.0114,-0.281616,57,-24.3522
0.0115,-0.280404,57.5,-24.2983
0.0116,-0.269899,58,-27.8975
0.0117,-0.262626,58.5,-31.5997
0.0118,-0.256162,59,-33.3803
0.0119,-0.28,59.5,-42.9132
0.012,-0.286061,60,-39.1586
0.0121,-0.321212,60.5,-29.5744
0.0122,-0.359596,61,-27.3699
0.0123,-0.363636,61.5,-29.0824
0.0124,-0.374949,62,-33.4211
0.0125,-0.386263,62.5,-34.7145
0.0126,-0.369293,63,-29.6115
0.0127,-0.363636,63.5,-26.9949
0.0128,-0.358788,64,-25.944
0.0129,-0.340606,64.5,-27.2323
0.013,-0.323636,65,-27.7867
0.0131,-0.321212,65.5,-28.1366
0.0132,-0.327677,66,-30.0773
0.0133,-0.30101,66.5,-38.7982
0.0134,-0.282424,67,-34.3685
0.0135,-0.283636,67.5,-29.9233
0.0136,-0.297778,68,-27.1099
0.0137,-0.296566,68.5,-27.042
0.0138,-0.321212,69,-32.7101
0.0139,-0.326061,69.5,-39.8646
0.014,-0.315556,70,-36.7981
0.0141,-0.31798,70.5,-31.698
0.0142,-0.296566,71,-33.2228
0.0143,-0.298586,71.5,-45.4621
0.0144,-0.323636,72,-43.7755
0.0145,-0.340606,72.5,-51.1668
0.0146,-0.360404,73,-40.1444
0.0147,-0.362828,73.5,-35.706
0.0148,-0.362828,74,-40.2161
0.0149,-0.361616,74.5,-46.6207
0.015,-0.366465,75,-43.4149
0.0151,-0.410505,75.5,-37.8701
0.0152,-0.411717,76,-35.6011
0.0153,-0.424242,76.5,-36.1554
0.0154,-0.444444,77,-35.4731
0.0155,-0.463838,77.5,-29.9173
0.0156,-0.453333,78,-25.6429
0.0157,-0.475152,78.5,-26.2113
0.0158,-0.488081,79,-28.9273
0.0159,-0.494545,79.5,-30.3041
0.016,-0.514747,80,-32.2165
0.0161,-0.509899,80.5,-32.4613
0.0162,-0.469495,81,-32.9414
0.0163,-0.448081,81.5,-35.4162
0.0164,-0.435556,82,-35.656
0.0165,-0.446869,82.5,-32.6609
0.0166,-0.439192,83,-35.3499
0.0167,-0.435152,83.5,-36.1857
0.0168,-0.43596,84,-32.6318
0.0169,-0.44,84.5,-29.9448
0.017,-0.43798,85,-30.5796
0.0171,-0.443232,85.5,-34.5368
0.0172,-0.437172,86,-39.6773
0.0173,-0.415354,86.5,-42.908
0.0174,-0.422626,87,-37.7046
0.0175,-0.408889,87.5,-33.0621
0.0176,-0.408889,88,-30.211
0.0177,-0.39798,88.5,-26.2236
0.0178,-0.407677,89,-24.5602
0.0179,-0.430303,89.5,-27.1333
0.018,-0.444848,90,-30.5425
0.0181,-0.441616,90.5,-36.3114
0.0182,-0.430707,91,-45.4831
0.0183,-0.409697,91.5,-42.6006
0.0184,-0.404444,92,-35.4306
0.0185,-0.401212,92.5,-34.553
0.0186,-0.384242,93,-34.9498
0.0187,-0.37899,93.5,-35.3283
0.0188,-0.362828,94,-32.5984
0.0189,-0.339798,94.5,-29.7453
0.019,-0.32202,95,-29.2958
0.0191,-0.324848,95.5,-29.6934
0.0192,-0.294949,96,-29.7883
0.0193,-0.282828,96.5,-30.3877
0.0194,-0.284444,97,-34.5346
0.0195,-0.288081,97.5,-30.1683
0.0196,-0.341414,98,-31.392
0.0197,-0.336566,98.5,-39.0205
0.0198,-0.301414,99,-37.2327
0.0199,-0.28202,99.5,-32.7743
0.02,-0.286465,100,-31.5122
0.0201,-0.32,100.5,-31.6963
0.0202,-0.333737,101,-32.2905
0.0203,-0.363232,101.5,-41.4874
0.0204,-0.376162,102,-39.0812
0.0205,-0.386263,102.5,-36.304
0.0206,-0.36404,103,-35.2909
0.0207,-0.369697,103.5,-32.9256
0.0208,-0.364848,104,-32.9244
0.0209,-0.362424,104.5,-30.4259
0.021,-0.392727,105,-27.8398
0.0211,-0.404848,105.5,-28.1911
0.0212,-0.409697,106,-29.3738
0.0213,-0.399192,106.5,-30.3724
0.0214,-0.391919,107,-28.4427
0.0215,-0.383434,107.5,-28.7643
0.0216,-0.388687,108,-36.1309
0.0217,-0.728081,108.5,-31.3426
0.0218,-0.978586,109,-26.8026
0.0219,-1.09657,109.5,-26.8643
0.022,-1.16364,110,-27.9997
0.0221,-1.1398,110.5,-27.1404
0.0222,-1.10545,111,-27.6084
0.0223,-1.05455,111.5,-29.2475
0.0224,-1.0097,112,-29.9522
0.0225,-0.982222,112.5,-32.3877
0.0226,-0.937778,113,-35.7192
0.0227,-0.897778,113.5,-35.2474
0.0228,-0.833131,114,-36.5124
0.0229,-0.78101,114.5,-36.0009
0.023,-0.74101,115,-34.6902
0.0231,-0.662222,115.5,-36.0831
0.0232,-0.611717,116,-36.6343
0.0233,-0.593535,116.5,-34.1596
0.0234,-0.570101,117,-36.371
0.0235,-0.535354,117.5,-36.3989
0.0236,-0.525253,118,-33.0585
0.0237,-0.513939,118.5,-31.9746
0.0238,-0.494545,119,-32.9711
0.0239,-0.210101,119.5,-34.0212
0.024,0.0561616,120,-29.8238
0.0241,0.221818,120.5,-27.9992
0.0242,0.313939,121,-29.6606
0.0243,0.389091,121.5,-31.0683
0.0244,0.412121,122,-29.6993
0.0245,0.37899,122.5,-30.3478
0.0246,0.375758,123,-31.1345
0.0247,0.34101,123.5,-29.4444
0.0248,0.288485,124,-27.1502
0.0249,0.272727,124.5,-26.551
0.025,0.252929,125,-27.037
0.0251,0.212525,125.5,-26.5478
0.0252,0.182626,126,-25.8654
0.0253,0.146263,126.5,-23.5093
0.0254,0.123232,127,-21.9906
0.0255,0.10101,127.5,-23.0222
0.0256,0.0618182,128,-22.545
0.0257,0.0210101,128.5,-22.9613
0.0258,-0.029899,129,-24.9834
0.0259,-0.040404,129.5,-28.1026
0.026,-0.0557576,130,-28.9897
0.0261,-0.0913131,130.5,-27.5695
0.0262,-0.0812121,131,-25.4367
0.0263,-0.0820202,131.5,-24.1102
0.0264,-0.100606,132,-23.4341
0.0265,-0.103838,132.5,-25.5691
0.0266,-0.12202,133,-30.0068
0.0267,-0.140202,133.5,-29.5804
0.0268,-0.154343,134,-26.5658
0.0269,-0.193131,134.5,-25.6719
0.027,-0.197576,135,-28.394
0.0271,-0.24,135.5,-31.4462
0.0272,-0.25899,136,-28.808
0.0273,-0.28,136.5,-23.4911
0.0274,-0.284848,137,-22.9974
0.0275,-0.335758,137.5,-26.2945
0.0276,-0.398384,138,-28.7964
0.0277,-0.40404,138.5,-29.6848
0.0278,-0.408081,139,-29.9579
0.0279,-0.41697,139.5,-32.0306
0.028,-0.364848,140,-34.2505
0.0281,-0.329697,140.5,-34.8738
0.0282,-0.277576,141,-36.9297
0.0283,-0.243232,141.5,-31.8402
0.0284,-0.228687,142,-27.1226
0.0285,-0.210909,142.5,-26.6719
0.0286,-0.240404,143,-26.5259
0.0287,-0.258586,143.5,-27.577
0.0288,-0.28202,144,-30.5686
0.0289,-0.282424,144.5,-32.553
0.029,-0.26303,145,-34.5715
0.0291,-0.23596,145.5,-36.7783
0.0292,-0.21697,146,-38.1443
0.0293,-0.201212,146.5,-35.5253
0.0294,-0.163232,147,-33.443
0.0295,-0.167273,147.5,-33.3271
0.0296,-0.184242,148,-43.7234
0.0297,-0.185455,148.5,-45.8364
0.0298,-0.158384,149,-42.9774
0.0299,-0.12404,149.5,-37.9313
0.03,-0.121616,150,-46.1425
0.0301,-0.12,150.5,-57.4099
0.0302,-0.120404,151,-60
0.0303,-0.150707,151.5,-43.7875
0.0304,-0.174949,152,-38.4038
0.0305,-0.193939,152.5,-35.5551
0.0306,-0.20202,153,-32.3085
0.0307,-0.220606,153.5,-30.2329
0.0308,-0.265455,154,-32.1064
0.0309,-0.282424,154.5,-38.4728
0.031,-0.287677,155,-36.8717
0.0311,-0.304242,155.5,-33.8855
0.0312,-0.304646,156,-31.5012
0.0313,-0.306263,156.5,-30.3187
0.0314,-0.64202,157,-29.6761
0.0315,-0.978586,157.5,-30.8708
0.0316,-1.14626,158,-31.9499
0.0317,-1.23071,158.5,-29.1426
0.0318,-1.26424,159,-28.9206
0.0319,-1.27677,159.5,-29.2387
0.032,-1.26788,160,-28.2059
0.0321,-1.2501,160.5,-31.6589
0.0322,-1.21293,161,-37.5019
0.0323,-1.18303,161.5,-34.1164
0.0324,-1.15636,162,-36.7139
0.0325,-1.10707,162.5,-37.3671
0.0326,-1.09131,163,-35.2874
0.0327,-1.05818,163.5,-38.4178
0.0328,-1.01131,164,-38.482
0.0329,-0.988687,164.5,-34.7461
0.033,-0.946263,165,-33.1147
0.0331,-0.907475,165.5,-29.4529
0.0332,-0.889697,166,-26.4407
0.0333,-0.859394,166.5,-28.892
0.0334,-0.847677,167,-29.2526
0.0335,-0.81899,167.5,-28.8058
0.0336,-0.607677,168,-30.1332
0.0337,-0.354747,168.5,-34.0286
0.0338,-0.492929,169,-50.4772
0.0339,-0.593939,169.5,-37.5091
0.034,-0.655354,170,-31.8677
0.0341,-0.665051,170.5,-31.1028
0.0342,-0.686465,171,-35.6317
0.0343,-0.688081,171.5,-39.1917
0.0344,-0.688889,172,-33.6147
0.0345,-0.671515,172.5,-33.6931
0.0346,-0.631919,173,-32.5443
0.0347,-0.609697,173.5,-29.646
0.0348,-0.604848,174,-27.8937
0.0349,-0.574545,174.5,-29.5186
0.035,-0.535758,175,-34.7284
0.0351,-0.544646,175.5,-33.9589
0.0352,-0.526465,176,-34.2542
0.0353,-0.551515,176.5,-36.8016
0.0354,-0.533737,177,-32.9154
0.0355,-0.526061,177.5,-37.8616
0.0356,-0.526869,178,-47.7932
0.0357,-0.524848,178.5,-34.7308
0.0358,-0.522828,179,-31.7289
0.0359,-0.46303,179.5,-33.232
0.036,-0.126869,180,-34.0328
0.0361,0.133737,180.5,-35.4747
0.0362,0.286869,181,-43.5257
0.0363,0.36404,181.5,-38.3284
0.0364,0.407273,182,-33.4087
0.0365,0.406061,182.5,-32.5699
0.0366,0.400404,183,-32.0514
0.0367,0.36,183.5,-30.8371
0.0368,0.307879,184,-29.8039
0.0369,0.262222,184.5,-29.8657
0.037,0.19596,185,-31.0108
0.0371,0.143838,185.5,-29.8469
0.0372,0.12202,186,-36.9884
0.0373,0.070303,186.5,-55.1464
0.0374,0.0315152,187,-39.8072
0.0375,-0.00686869,187.5,-41.8905
0.0376,-0.0391919,188,-51.3274
0.0377,-0.0686869,188.5,-48.7197
0.0378,-0.109899,189,-42.4273
0.0379,-0.143434,189.5,-44.7353
0.038,-0.194343,190,-46.899
0.0381,-0.20202,190.5,-37.5669
0.0382,-0.203232,191,-34.3579
0.0383,-0.200404,191.5,-31.7142
0.0384,-0.201616,192,-35.1854
0.0385,-0.212525,192.5,-54.2038
0.0386,-0.271515,193,-37.0309
0.0387,-0.280404,193.5,-34.8657
0.0388,-0.280404,194,-36.3504
0.0389,-0.280404,194.5,-35.6772
0.039,-0.257778,195,-33.0861
0.0391,-0.248081,195.5,-34.3591
0.0392,-0.218586,196,-27.4243
0.0393,-0.20202,196.5,-26.3928
0.0394,-0.156364,197,-25.7209
0.0395,-0.130909,197.5,-25.0151
0.0396,-0.102626,198,-25.6698
0.0397,-0.0771717,198.5,-26.4847
0.0398,-0.0391919,199,-27.0107
0.0399,-0.00121212,199.5,-29.0184
0.04,0.00121212,200,-30.3386
0.0401,0.04,200.5,-30.9092
0.0402,0.0375758,201,-33.2437
0.0403,0.04,201.5,-39.6821
0.0404,0.0416162,202,-52.5651
0.0405,0.0472727,202.5,-42.6403
0.0406,0.0787879,203,-34.0838
0.0407,0.120808,203.5,-31.7949
0.0408,0.121212,204,-32.109
0.0409,0.122424,204.5,-32.9919
0.041,0.145051,205,-28.3459
0.0411,0.122828,205.5,-28.6923
0.0412,0.122424,206,-33.7256
0.0413,0.122424,206.5,-37.0297
0.0414,0.121212,207,-38.9583
0.0415,0.11596,207.5,-37.3894
0.0416,0.0836364,208,-34.7315
0.0417,0.0686869,208.5,-34.1085
0.0418,0.0476768,209,-32.4709
0.0419,0.0412121,209.5,-31.1065
0.042,0.0218182,210,-29.9476
0.0421,-0.0246465,210.5,-29.6703
0.0422,-0.0565657,211,-30.5609
0.0423,-0.0892929,211.5,-31.7176
0.0424,-0.142626,212,-32.2745
0.0425,-0.227475,212.5,-31.2791
0.0426,-0.298182,213,-30.7807
0.0427,-0.356768,213.5,-33.0307
0.0428,-0.42101,214,-38.5867
0.0429,-0.481212,214.5,-42.1335
0.043,-0.537374,215,-37.0031
0.0431,-0.587475,215.5,-40.3971
0.0432,-0.605657,216,-37.199
0.0433,-0.628283,216.5,-35.526
0.0434,-0.64,217,-38.8657
0.0435,-0.618182,217.5,-37.2727
0.0436,-0.606465,218,-35.1061
0.0437,-0.589899,218.5,-31.8082
0.0438,-0.549091,219,-28.7227
0.0439,-0.514343,219.5,-27.9161
0.044,-0.460606,220,-29.6584
0.0441,-0.419394,220.5,-33.8685
0.0442,-0.38101,221,-37.6983
0.0443,-0.363636,221.5,-42.8989
0.0444,-0.357172,222,-49.8199
0.0445,-0.301818,222.5,-41.2294
0.0446,-0.269495,223,-42.3053
0.0447,-0.250505,223.5,-42.267
0.0448,-0.24404,224,-35.0768
0.0449,-0.246869,224.5,-28.9898
0.045,-0.249697,225,-29.7261
0.0451,-0.246061,225.5,-31.1931
0.0452,-0.249293,226,-33.297
0.0453,-0.228283,226.5,-34.531
0.0454,-0.238788,227,-34.7056
0.0455,-0.266263,227.5,-36.5988
0.0456,-0.282828,228,-45.3807
0.0457,-0.290101,228.5,-53.3938
0.0458,-0.299394,229,-43.0883
0.0459,-0.322424,229.5,-39.1728
0.046,-0.343434,230,-38.7844
0.0461,-0.360808,230.5,-35.7272
0.0462,-0.363636,231,-36.5455
0.0463,-0.35596,231.5,-38.545
0.0464,-0.328485,232,-38.6809
0.0465,-0.326869,232.5,-40.507
0.0466,-0.326869,233,-40.2426
0.0467,-0.294949,233.5,-44.9713
0.0468,-0.283636,234,-36.462
0.0469,-0.281616,234.5,-32.9813
0.047,-0.263838,235,-39.3548
0.0471,-0.258182,235.5,-31.6126
0.0472,-0.279192,236,-29.6066
0.0473,-0.281616,236.5,-29.8397
0.0474,-0.28404,237,-33.6334
0.0475,-0.27596,237.5,-40.4108
0.0476,-0.277576,238,-39.7992
0.0477,-0.264646,238.5,-43.5328
0.0478,-0.270303,239,-43.0158
0.0479,-0.279192,239.5,-47.2129
0.048,-0.281212,240,-44.9451
0.0481,-0.282424,240.5,-42.419
0.0482,-0.267071,241,-41.2409
0.0483,-0.251717,241.5,-39.1555
0.0484,-0.262626,242,-33.9883
0.0485,-0.282424,242.5,-35.5868
0.0486,-0.305859,243,-39.7576
0.0487,-0.340606,243.5,-39.8583
0.0488,-0.334545,244,-35.7104
0.0489,-0.339394,244.5,-38.5786
0.049,-0.34101,245,-37.8271
0.0491,-0.34303,245.5,-35.6646
0.0492,-0.332525,246,-32.8477
0.0493,-0.313535,246.5,-30.3738
0.0494,-0.320404,247,-29.0392
0.0495,-0.32404,247.5,-30.9422
0.0496,-0.32202,248,-37.9654
0.0497,-0.313939,248.5,-52.2918
0.0498,-0.285657,249,-40.9044
0.0499,-0.281616,249.5,-38.901
0.05,-0.282424,250,-42.5688
0.0501,-0.267071,250.5,-46.046
0.0502,-0.281616,251,-44.8977
0.0503,-0.289697,251.5,-46.9007
0.0504,-0.295758,252,-37.3446
0.0505,-0.297778,252.5,-35.3822
0.0506,-0.350707,253,-33.9111
0.0507,-0.373333,253.5,-36.1829
0.0508,-0.414141,254,-45.3984
0.0509,-0.442424,254.5,-45.2924
0.051,-0.472727,255,-46.2444
0.0511,-0.524848,255.5,-42.7543
0.0512,-0.526061,256,-36.457
0.0513,-0.552323,256.5,-33.4469
0.0514,-0.555556,257,-34.9245
0.0515,-0.56202,257.5,-39.696
0.0516,-0.56404,258,-41.879
0.0517,-0.558788,258.5,-35.9126
0.0518,-0.526465,259,-33.5122
0.0519,-0.524848,259.5,-35.0234
0.052,-0.524444,260,-35.6056
0.0521,-0.487677,260.5,-36.9899
0.0522,-0.440808,261,-40.9788
0.0523,-0.40404,261.5,-46.8545
0.0524,-0.393131,262,-47.3734
0.0525,-0.372525,262.5,-41.9111
0.0526,-0.368889,263,-42.6701
0.0527,-0.363636,263.5,-39.177
0.0528,-0.362828,264,-47.6856
0.0529,-0.339394,264.5,-42.8927
0.053,-0.324444,265,-48.4344
0.0531,-0.324444,265.5,-40.503
0.0532,-0.343838,266,-36.9329
0.0533,-0.358788,266.5,-34.1593
0.0534,-0.361212,267,-32.3699
0.0535,-0.339394,267.5,-33.7012
0.0536,-0.323636,268,-36.5092
0.0537,-0.285253,268.5,-37.5729
0.0538,-0.284848,269,-40.2606
0.0539,-0.290101,269.5,-46.1686
0.054,-0.283636,270,-49.0778
0.0541,-0.279596,270.5,-40.1772
0.0542,-0.28202,271,-36.0292
0.0543,-0.28202,271.5,-34.956
0.0544,-0.28202,272,-34.6194
0.0545,-0.280404,272.5,-35.0013
0.0546,-0.270707,273,-40.3265
0.0547,-0.28202,273.5,-35.1559
0.0548,-0.277576,274,-40.6923
0.0549,-0.27596,274.5,-41.9215
0.055,-0.28202,275,-41.7942
0.0551,-0.283232,275.5,-39.7048
0.0552,-0.29697,276,-39.3075
0.0553,-0.319596,276.5,-37.5912
0.0554,-0.316768,277,-34.6303
0.0555,-0.319596,277.5,-34.2059
0.0556,-0.349495,278,-35.7658
0.0557,-0.362828,278.5,-35.1897
0.0558,-0.325253,279,-34.5924
0.0559,-0.290101,279.5,-33.4395
0.056,-0.30101,280,-34.2401
0.0561,-0.272727,280.5,-33.5555
0.0562,-0.28202,281,-32.1484
0.0563,-0.289697,281.5,-33.3123
0.0564,-0.304242,282,-36.1727
0.0565,-0.287273,282.5,-38.7091
0.0566,-0.286061,283,-32.296
0.0567,-0.282424,283.5,-33.1729
0.0568,-0.262222,284,-40.3549
0.0569,-0.241616,284.5,-43.1799
0.057,-0.243232,285,-46.5701
0.0571,-0.248485,285.5,-45.2725
0.0572,-0.249293,286,-40.7436
0.0573,-0.246465,286.5,-38.4012
0.0574,-0.225859,287,-37.4013
0.0575,-0.248081,287.5,-36.2182
0.0576,-0.281212,288,-34.3143
0.0577,-0.282424,288.5,-35.6285
0.0578,-0.283636,289,-37.2107
0.0579,-0.285253,289.5,-38.2931
0.058,-0.307071,290,-38.956
0.0581,-0.306667,290.5,-38.7969
0.0582,-0.288081,291,-40.5723
0.0583,-0.319192,291.5,-42.5044
0.0584,-0.331717,292,-43.3363
0.0585,-0.355556,292.5,-37.0644
0.0586,-0.36404,293,-34.9946
0.0587,-0.374141,293.5,-53.5892
0.0588,-0.367677,294,-44.9053
0.0589,-0.368889,294.5,-44.7163
0.059,-0.37697,295,-44.9637
0.0591,-0.410909,295.5,-40.4946
0.0592,-0.438384,296,-36.8321
0.0593,-0.43798,296.5,-36.8774
0.0594,-0.426667,297,-38.6091
0.0595,-0.429091,297.5,-37.6073
0.0596,-0.451717,298,-37.086
0.0597,-0.441616,298.5,-38.0404
0.0598,-0.430707,299,-42.7551
0.0599,-0.407273,299.5,-40.3214
0.06,-0.436768,300,-38.1834
0.0601,-0.447677,300.5,-38.5092
0.0602,-0.462222,301,-37.782
0.0603,-0.437172,301.5,-37.3135
0.0604,-0.429091,302,-39.9712
0.0605,-0.458586,302.5,-40.6459
0.0606,-0.468687,303,-40.7056
0.0607,-0.445657,303.5,-42.9301
0.0608,-0.416162,304,-51.0812
0.0609,-0.405657,304.5,-52.1971
0.061,-0.398384,305,-48.9659
0.0611,-0.402828,305.5,-45.7221
0.0612,-0.401616,306,-39.522
0.0613,-0.407273,306.5,-36.3127
0.0614,-0.420202,307,-35.4657
0.0615,-0.411313,307.5,-35.6716
0.0616,-0.407273,308,-39.784
0.0617,-0.384646,308.5,-45.4594
0.0618,-0.364444,309,-38.2153
0.0619,-0.365253,309.5,-37.2236
0.062,-0.39798,310,-41.2809
0.0621,-0.400808,310.5,-42.1057
0.0622,-0.383838,311,-42.3297
0.0623,-0.393939,311.5,-54.1077
0.0624,-0.400808,312,-54.1529
0.0625,-0.400404,312.5,-44.3824
0.0626,-0.422222,313,-52.3509
0.0627,-0.409697,313.5,-43.16
0.0628,-0.407273,314,-37.814
0.0629,-0.408081,314.5,-36.5563
0.063,-0.436768,315,-39.0966
0.0631,-0.409293,315.5,-41.7594
0.0632,-0.404444,316,-44.0519
0.0633,-0.40404,316.5,-40.2897
0.0634,-0.398788,317,-39.7795
0.0635,-0.398384,317.5,-39.8136
0.0636,-0.364444,318,-42.7717
0.0637,-0.357576,318.5,-45.578
0.0638,-0.362424,319,-45.3884
0.0639,-0.336566,319.5,-48.4368
0.064,-0.311515,320,-42.4595
0.0641,-0.284444,320.5,-38.2345
0.0642,-0.286465,321,-39.2501
0.0643,-0.298182,321.5,-39.4674
0.0644,-0.283636,322,-37.9139
0.0645,-0.278788,322.5,-37.417
0.0646,-0.283232,323,-38.1499
0.0647,-0.264242,323.5,-36.3076
0.0648,-0.240808,324,-34.0588
0.0649,-0.24202,324.5,-35.0163
0.065,-0.228687,325,-37.1263
0.0651,-0.231515,325.5,-38.7796
0.0652,-0.220606,326,-42.1062
0.0653,-0.254545,326.5,-38.8189
0.0654,-0.273535,327,-40.5542
0.0655,-0.243232,327.5,-48.9738
0.0656,-0.259394,328,-60
0.0657,-0.281616,328.5,-55.0452
0.0658,-0.28,329,-55.0908
0.0659,-0.28,329.5,-47.1553
0.066,-0.271919,330,-40.0438
0.0661,-0.278384,330.5,-40.0982
0.0662,-0.273131,331,-43.2229
0.0663,-0.264242,331.5,-52.6875
0.0664,-0.278788,332,-36.6841
0.0665,-0.28202,332.5,-39.4035
0.0666,-0.283232,333,-49.3052
0.0667,-0.283636,333.5,-59.721
0.0668,-0.292929,334,-48.3163
0.0669,-0.288889,334.5,-47.9988
0.067,-0.305051,335,-43.6977
0.0671,-0.316768,335.5,-37.5137
0.0672,-0.288889,336,-36.16
0.0673,-0.28404,336.5,-35.5663
0.0674,-0.28404,337,-37.8292
0.0675,-0.304646,337.5,-43.1812
0.0676,-0.347475,338,-47.4574
0.0677,-0.363636,338.5,-42.9883
0.0678,-0.364848,339,-44.5143
0.0679,-0.365253,339.5,-47.388
0.068,-0.388283,340,-47.8795
0.0681,-0.403636,340.5,-44.2988
0.0682,-0.40202,341,-43.0552
0.0683,-0.366869,341.5,-39.7209
0.0684,-0.359596,342,-40.7849
0.0685,-0.31596,342.5,-40.1102
0.0686,-0.337778,343,-47.972
0.0687,-0.330101,343.5,-43.3648
0.0688,-0.319192,344,-39.4321
0.0689,-0.324444,344.5,-39.6916
0.069,-0.318788,345,-43.989
0.0691,-0.315556,345.5,-42.6024
0.0692,-0.305455,346,-37.4692
0.0693,-0.299394,346.5,-37.3783
0.0694,-0.282828,347,-42.2866
0.0695,-0.276768,347.5,-48.4953
0.0696,-0.27798,348,-53.2513
0.0697,-0.246869,348.5,-50.8193
0.0698,-0.215354,349,-43.263
0.0699,-0.200404,349.5,-40.4235
0.07,-0.185859,350,-41.288
0.0701,-0.182222,350.5,-43.6117
0.0702,-0.155556,351,-39.269
0.0703,-0.134141,351.5,-36.3597
0.0704,-0.153535,352,-40.2025
0.0705,-0.187879,352.5,-47.0614
0.0706,-0.201616,353,-44.9801
0.0707,-0.214141,353.5,-44.2828
0.0708,-0.233535,354,-45.3856
0.0709,-0.241212,354.5,-44.0595
0.071,-0.28,355,-43.1873
0.0711,-0.282828,355.5,-42.2187
0.0712,-0.305455,356,-47.1128
0.0713,-0.343434,356.5,-53.0296
0.0714,-0.330909,357,-47.2846
0.0715,-0.35596,357.5,-46.0279
0.0716,-0.363636,358,-44.6557
0.0717,-0.363636,358.5,-45.4132
0.0718,-0.363636,359,-45.1417
0.0719,-0.363636,359.5,-45.2108
0.072,-0.341414,360,-42.5433
0.0721,-0.308687,360.5,-40.7233
0.0722,-0.318384,361,-37.7015
0.0723,-0.314343,361.5,-39.0445
0.0724,-0.313535,362,-54.174
0.0725,-0.298586,362.5,-50.2469
0.0726,-0.314343,363,-41.9002
0.0727,-0.332929,363.5,-39.0108
0.0728,-0.334949,364,-39.9042
0.0729,-0.324444,364.5,-47.6283
0.073,-0.293737,365,-48.3731
0.0731,-0.291313,365.5,-51.65
0.0732,-0.281616,366,-52.0793
0.0733,-0.275152,366.5,-45.1364
0.0734,-0.280404,367,-43.4757
0.0735,-0.282828,367.5,-39.8785
0.0736,-0.315556,368,-38.3705
0.0737,-0.319596,368.5,-39.2434
0.0738,-0.336566,369,-41.4189
0.0739,-0.349899,369.5,-43.0734
0.074,-0.391919,370,-41.5755
0.0741,-0.404848,370.5,-44.7802
0.0742,-0.423434,371,-45.0334
0.0743,-0.439192,371.5,-43.7218
0.0744,-0.410101,372,-41.261
0.0745,-0.408485,372.5,-39.0073
0.0746,-0.410909,373,-39.0291
0.0747,-0.40404,373.5,-39.8284
0.0748,-0.414545,374,-39.8571
0.0749,-0.443232,374.5,-43.253
0.075,-0.428687,375,-48.2272
0.0751,-0.427475,375.5,-43.2024
0.0752,-0.440404,376,-40.204
0.0753,-0.41697,376.5,-39.2568
0.0754,-0.43798,377,-39.3141
0.0755,-0.437576,377.5,-37.7713
0.0756,-0.444848,378,-36.2831
0.0757,-0.452121,378.5,-34.9098
0.0758,-0.469091,379,-35.9076
0.0759,-0.471515,379.5,-38.7163
0.076,-0.452525,380,-41.6946
0.0761,-0.456162,380.5,-40.3486
0.0762,-0.473939,381,-40.7195
0.0763,-0.495354,381.5,-54.6752
0.0764,-0.507879,382,-42.1436
0.0765,-0.470303,382.5,-42.6194
0.0766,-0.445253,383,-43.9359
0.0767,-0.452929,383.5,-42.1314
0.0768,-0.49899,384,-40.8192
0.0769,-0.521616,384.5,-42.0672
0.077,-0.523636,385,-42.3424
0.0771,-0.525253,385.5,-41.5127
0.0772,-0.522828,386,-45.893
0.0773,-0.49899,386.5,-53.0615
0.0774,-0.487273,387,-60
0.0775,-0.476364,387.5,-55.9777
0.0776,-0.445657,388,-46.2115
0.0777,-0.474343,388.5,-46.3822
0.0778,-0.50303,389,-49.3263
0.0779,-0.479596,389.5,-48.9432
0.078,-0.456162,390,-49.0742
0.0781,-0.434747,390.5,-38.7597
0.0782,-0.404444,391,-37.6049
0.0783,-0.380202,391.5,-38.3034
0.0784,-0.387475,392,-37.9284
0.0785,-0.387475,392.5,-38.4372
0.0786,-0.367677,393,-38.3981
0.0787,-0.359596,393.5,-40.4401
0.0788,-0.362424,394,-46.2167
0.0789,-0.363636,394.5,-50.8709
0.079,-0.379394,395,-52.8757
0.0791,-0.392727,395.5,-59.2158
0.0792,-0.375758,396,-52.6309
0.0793,-0.373333,396.5,-47.4613
0.0794,-0.389091,397,-46.1719
0.0795,-0.364444,397.5,-46.0116
0.0796,-0.363636,398,-51.402
0.0797,-0.349899,398.5,-60
0.0798,-0.334949,399,-49.945
0.0799,-0.295354,399.5,-44.9976
0.08,-0.286061,400,-58.1919
0.0801,-0.288485,400.5,-47.3799
0.0802,-0.313939,401,-51.6612
0.0803,-0.290101,401.5,-57.6838
0.0804,-0.317576,402,-60
0.0805,-0.36202,402.5,-60
0.0806,-0.357576,403,-45.2438
0.0807,-0.36202,403.5,-40.3656
0.0808,-0.354747,404,-43.3754
0.0809,-0.359596,404.5,-47.1582
0.081,-0.358384,405,-47.0269
0.0811,-0.47596,405.5,-56.731
0.0812,-0.563636,406,-52.5062
0.0813,-0.607677,406.5,-49.2127
0.0814,-0.641616,407,-51.3838
0.0815,-0.649293,407.5,-50.8685
0.0816,-0.642828,408,-46.9763
0.0817,-0.608889,408.5,-48.023
0.0818,-0.638788,409,-48.6453
0.0819,-0.647677,409.5,-56.4
0.082,-0.653333,410,-46.325
0.0821,-0.638384,410.5,-42.1466
0.0822,-0.591111,411,-41.2392
0.0823,-0.53899,411.5,-42.5184
0.0824,-0.527273,412,-41.881
0.0825,-0.524848,412.5,-43.3344
0.0826,-0.465455,413,-44.2043
0.0827,-0.422222,413.5,-44.0303
0.0828,-0.366869,414,-46.4734
0.0829,-0.368081,414.5,-47.7638
0.083,-0.365253,415,-48.2394
0.0831,-0.379798,415.5,-49.8437
0.0832,-0.366869,416,-46.0273
0.0833,-0.374545,416.5,-44.3589
0.0834,-0.400808,417,-42.7217
0.0835,-0.446869,417.5,-41.9047
0.0836,-0.436364,418,-43.9879
0.0837,-0.354343,418.5,-45.2309
0.0838,-0.294545,419,-43.0367
0.0839,-0.277172,419.5,-46.2366
0.084,-0.250505,420,-48.0839
0.0841,-0.251717,420.5,-46.7862
0.0842,-0.233131,421,-51.581
0.0843,-0.229091,421.5,-52.6791
0.0844,-0.240404,422,-47.2391
0.0845,-0.245253,422.5,-46.9889
0.0846,-0.268283,423,-45.4876
0.0847,-0.27798,423.5,-43.3425
0.0848,-0.282828,424,-45.6546
0.0849,-0.29697,424.5,-53.5986
0.085,-0.341414,425,-52.5137
0.0851,-0.370101,425.5,-44.2383
0.0852,-0.368485,426,-42.7621
0.0853,-0.394747,426.5,-44.2465
0.0854,-0.40404,427,-50.5052
0.0855,-0.405253,427.5,-60
0.0856,-0.373737,428,-55.3229
0.0857,-0.352727,428.5,-48.9338
0.0858,-0.346667,429,-46.649
0.0859,-0.321212,429.5,-47.1442
0.086,-0.291313,430,-45.199
0.0861,-0.232727,430.5,-44.5411
0.0862,-0.206061,431,-42.8292
0.0863,-0.168081,431.5,-41.7137
0.0864,-0.114343,432,-42.9373
0.0865,-0.0646465,432.5,-47.0882
0.0866,-0.0351515,433,-60
0.0867,-0.0105051,433.5,-53.9587
0.0868,0.00323232,434,-54.2667
0.0869,0.0125253,434.5,-59.9965
0.087,-0.00484848,435,-49.8824
0.0871,0.0218182,435.5,-45.0577
0.0872,-0.00040404,436,-48.2807
0.0873,-0.00161616,436.5,-52.7064
0.0874,0.00161616,437,-56.2292
0.0875,-0.040404,437.5,-51.649
0.0876,-0.0674747,438,-47.0161
0.0877,-0.0985859,438.5,-47.1109
0.0878,-0.0961616,439,-48.0267
0.0879,-0.12,439.5,-50.1198
0.088,-0.140606,440,-50.3212
0.0881,-0.177374,440.5,-53.8703
0.0882,-0.20202,441,-57.4138
0.0883,-0.208485,441.5,-60
0.0884,-0.24404,442,-60
0.0885,-0.292929,442.5,-60
0.0886,-0.33697,443,-54.8184
0.0887,-0.363636,443.5,-51.1444
0.0888,-0.363636,444,-47.9048
0.0889,-0.362828,444.5,-47.9412
0.089,-0.367677,445,-49.1339
0.0891,-0.366061,445.5,-48.9742
0.0892,-0.363232,446,-49.968
0.0893,-0.339798,446.5,-51.6325
0.0894,-0.313131,447,-49.8721
0.0895,-0.320404,447.5,-44.2528
0.0896,-0.342222,448,-43.8724
0.0897,-0.363232,448.5,-47.525
0.0898,-0.360404,449,-47.7022
0.0899,-0.349091,449.5,-43.9096
0.09,-0.344646,450,-43.0016
0.0901,-0.350303,450.5,-43.4726
0.0902,-0.345455,451,-45.3972
0.0903,-0.336566,451.5,-44.2272
0.0904,-0.32404,452,-44.4967
0.0905,-0.326061,452.5,-45.0199
0.0906,-0.351111,453,-41.9343
0.0907,-0.364848,453.5,-41.0875
0.0908,-0.375758,454,-41.7
0.0909,-0.379798,454.5,-42.1165
0.091,-0.392323,455,-42.8029
0.0911,-0.398384,455.5,-44.7144
0.0912,-0.405253,456,-45.6989
0.0913,-0.404848,456.5,-49.6266
0.0914,-0.377778,457,-52.0035
0.0915,-0.380202,457.5,-44.2418
0.0916,-0.371717,458,-41.763
0.0917,-0.385455,458.5,-41.0619
0.0918,-0.399596,459,-41.5175
0.0919,-0.376566,459.5,-45.5013
0.092,-0.362828,460,-52.4103
0.0921,-0.354747,460.5,-51.6813
0.0922,-0.351919,461,-49.041
0.0923,-0.354747,461.5,-48.6518
0.0924,-0.362828,462,-51.4716
0.0925,-0.361212,462.5,-54.0657
0.0926,-0.359596,463,-56.9936
0.0927,-0.342626,463.5,-58.6671
0.0928,-0.327273,464,-53.4925
0.0929,-0.322828,464.5,-60
0.093,-0.328889,465,-52.9671
0.0931,-0.360808,465.5,-48.8168
0.0932,-0.402828,466,-55.8943
0.0933,-0.411313,466.5,-57.0685
0.0934,-0.433939,467,-51.3546
0.0935,-0.450101,467.5,-46.3626
0.0936,-0.494141,468,-46.6824
0.0937,-0.494545,468.5,-45.7928
0.0938,-0.490505,469,-43.6596
0.0939,-0.501818,469.5,-47.1033
0.094,-0.472323,470,-51.9077
0.0941,-0.450101,470.5,-55.1697
0.0942,-0.450909,471,-44.609
0.0943,-0.465859,471.5,-41.6645
0.0944,-0.484848,472,-43.6568
0.0945,-0.513535,472.5,-44.6983
0.0946,-0.521212,473,-44.0447
0.0947,-0.491717,473.5,-44.528
0.0948,-0.452525,474,-48.1002
0.0949,-0.384646,474.5,-52.5591
0.095,-0.328081,475,-50.4432
0.0951,-0.284444,475.5,-47.394
0.0952,-0.281212,476,-48.3332
0.0953,-0.282828,476.5,-48.8846
0.0954,-0.282424,477,-57.6619
0.0955,-0.269495,477.5,-60
0.0956,-0.265859,478,-48.1453
0.0957,-0.282828,478.5,-49.228
0.0958,-0.282424,479,-60
0.0959,-0.290101,479.5,-60
0.096,-0.31596,480,-60
0.0961,-0.305859,480.5,-52.7217
0.0962,-0.309899,481,-49.0633
0.0963,-0.324444,481.5,-49.0807
0.0964,-0.319192,482,-56.6998
0.0965,-0.298586,482.5,-57.6798
0.0966,-0.308283,483,-50.9312
0.0967,-0.305859,483.5,-51.8293
0.0968,-0.285253,484,-60
0.0969,-0.299394,484.5,-55.3444
0.097,-0.287677,485,-53.3944
0.0971,-0.303838,485.5,-59.4276
0.0972,-0.333333,486,-47.1375
0.0973,-0.31596,486.5,-46.4748
0.0974,-0.294949,487,-46.843
0.0975,-0.292525,487.5,-46.3963
0.0976,-0.282828,488,-45.3936
0.0977,-0.28202,488.5,-44.4909
0.0978,-0.283232,489,-44.1587
0.0979,-0.291717,489.5,-49.8369
0.098,-0.322424,490,-58.4462
0.0981,-0.324444,490.5,-57.7432
0.0982,-0.308283,491,-51.7557
0.0983,-0.305455,491.5,-45.9411
0.0984,-0.330909,492,-45.5073
0.0985,-0.342222,492.5,-47.2901
0.0986,-0.336162,493,-50.438
0.0987,-0.32404,493.5,-49.6433
0.0988,-0.352323,494,-50.1137
0.0989,-0.360404,494.5,-46.7512
0.099,-0.355152,495,-47.6272
0.0991,-0.332121,495.5,-53.226
0.0992,-0.292121,496,-54.518
0.0993,-0.294949,496.5,-52.279
0.0994,-0.336566,497,-60
0.0995,-0.354747,497.5,-56.3923
0.0996,-0.363636,498,-48.1955
0.0997,-0.363232,498.5,-45.7301
0.0998,-0.363636,499,-44.1231
0.0999,-0.368485,499.5,-46.2397
0.1,-0.388687,500,-54.0311
0.1001,-0.39596,500.5,-56.8489
0.1002,-0.401616,501,-51.7953
0.1003,-0.390303,501.5,-50.4354
0.1004,-0.384242,502,-50.7959
0.1005,-0.377778,502.5,-50.1323
0.1006,-0.36404,503,-47.6544
0.1007,-0.367273,503.5,-48.1039
0.1008,-0.373333,504,-50.3253
0.1009,-0.362828,504.5,-52.8169
0.101,-0.330505,505,-58.1443
0.1011,-0.290505,505.5,-60
0.1012,-0.281616,506,-53.9247
0.1013,-0.276364,506.5,-49.7142
0.1014,-0.249293,507,-44.8936
0.1015,-0.265455,507.5,-51.8064
0.1016,-0.252121,508,-56.7512
0.1017,-0.244444,508.5,-47.3813
0.1018,-0.248485,509,-46.0047
0.1019,-0.260202,509.5,-47.8773
0.102,-0.276768,510,-51.1183
0.1021,-0.295758,510.5,-50.6981
0.1022,-0.345051,511,-52.6259
0.1023,-0.363636,511.5,-52.2455
0.1024,-0.384242,512,-53.0167
0.1025,-0.428687,512.5,-60
0.1026,-0.472727,513,-54.7226
0.1027,-0.486061,513.5,-51.7819
0.1028,-0.523636,514,-51.7405
0.1029,-0.830707,514.5,-50.1786
0.103,-1.14384,515,-47.1281
0.1031,-1.30869,515.5,-45.765
0.1032,-1.35475,516,-42.5966
0.1033,-1.37131,516.5,-41.5872
0.1034,-1.36889,517,-43.2287
0.1035,-1.35596,517.5,-41.6427
0.1036,-1.31758,518,-44.1529
0.1037,-1.26545,518.5,-46.1519
0.1038,-1.21616,519,-46.5042
0.1039,-1.16525,519.5,-49.8789
0.104,-1.10141,520,-48.7117
0.1041,-1.03677,520.5,-46.7017
0.1042,-1.00929,521,-47.0605
0.1043,-1.00606,521.5,-49.7435
0.1044,-0.972525,522,-52.0901
0.1045,-0.936162,522.5,-53.8296
0.1046,-0.94101,523,-60
0.1047,-0.968485,523.5,-60
0.1048,-0.97697,524,-57.4944
0.1049,-0.972929,524.5,-56.6942
0.105,-0.98101,525,-60
0.1051,-0.930909,525.5,-54.9493
0.1052,-0.570909,526,-48.3375
0.1053,-0.325253,526.5,-46.6805
0.1054,-0.185859,527,-48.1872
0.1055,-0.0662626,527.5,-47.512
0.1056,-0.0157576,528,-50.1383
0.1057,0.00282828,528.5,-49.9502
0.1058,0.0412121,529,-52.178
0.1059,0.0783838,529.5,-48.5295
0.106,0.100606,530,-51.3852
0.1061,0.143838,530.5,-60
0.1062,0.18101,531,-48.5838
0.1063,0.201616,531.5,-46.3494
0.1064,0.235152,532,-45.6051
0.1065,0.261414,532.5,-47.8316
0.1066,0.283232,533,-58.0672
0.1067,0.284848,533.5,-52.3717
0.1068,0.287677,534,-46.2012
0.1069,0.29697,534.5,-45.9608
0.107,0.27798,535,-48.0547
0.1071,0.251717,535.5,-49.9306
0.1072,0.252121,536,-49.8404
0.1073,0.242424,536.5,-53.989
0.1074,0.216566,537,-60
0.1075,0.194343,537.5,-57.31
0.1076,0.168485,538,-48.572
0.1077,0.140202,538.5,-48.7104
0.1078,0.113535,539,-55.7814
0.1079,0.0892929,539.5,-57.825
0.108,0.0767677,540,-55.7871
0.1081,0.0294949,540.5,-54.8263
0.1082,-0.0363636,541,-50.0495
0.1083,-0.0533333,541.5,-49.2738
0.1084,-0.0860606,542,-52.2151
0.1085,-0.112323,542.5,-52.8987
0.1086,-0.122424,543,-52.9079
0.1087,-0.157172,543.5,-49.8395
0.1088,-0.167273,544,-48.8853
0.1089,-0.151515,544.5,-49.5583
0.109,-0.158788,545,-51.8889
0.1091,-0.136566,545.5,-60
0.1092,-0.135354,546,-54.7403
0.1093,-0.166061,546.5,-57.6236
0.1094,-0.171717,547,-53.4897
0.1095,-0.161616,547.5,-53.5838
0.1096,-0.167273,548,-55.5584
0.1097,-0.167677,548.5,-57.2754
0.1098,-0.185051,549,-50.0934
0.1099,-0.192727,549.5,-47.3595
0.11,-0.203232,550,-48.1976
0.1101,-0.20202,550.5,-49.7597
0.1102,-0.20202,551,-50.2713
0.1103,-0.203636,551.5,-51.7341
0.1104,-0.236364,552,-51.7964
0.1105,-0.250505,552.5,-50.1177
0.1106,-0.276768,553,-52.2298
0.1107,-0.287677,553.5,-50.8383
0.1108,-0.319192,554,-47.22
0.1109,-0.360404,554.5,-47.7047
0.111,-0.363636,555,-50.0412
0.1111,-0.375354,555.5,-54.6577
0.1112,-0.379798,556,-60
0.1113,-0.425859,556.5,-43.8172
0.1114,-0.443636,557,-46.9624
0.1115,-0.443232,557.5,-50.8926
0.1116,-0.468687,558,-51.4402
0.1117,-0.50101,558.5,-60
0.1118,-0.524444,559,-51.4773
0.1119,-0.522424,559.5,-47.5706
0.112,-0.493333,560,-47.8354
0.1121,-0.487677,560.5,-49.1313
0.1122,-0.45697,561,-51.6483
0.1123,-0.412525,561.5,-55.3671
0.1124,-0.388283,562,-57.5159
0.1125,-0.377374,562.5,-56.4647
0.1126,-0.363636,563,-57.1914
0.1127,-0.362828,563.5,-54.6359
0.1128,-0.337374,564,-51.124
0.1129,-0.325253,564.5,-53.9395
0.113,-0.317172,565,-57.323
0.1131,-0.296162,565.5,-58.9605
0.1132,-0.282828,566,-42.7718
0.1133,-0.273131,566.5,-39.2252
0.1134,-0.245253,567,-43.5423
0.1135,-0.223838,567.5,-46.7073
0.1136,-0.202828,568,-50.4982
0.1137,-0.20202,568.5,-51.2898
0.1138,-0.199192,569,-54.1921
0.1139,-0.176162,569.5,-51.05
0.114,-0.159596,570,-49.7831
0.1141,-0.146667,570.5,-56.7417
0.1142,-0.144646,571,-58.7895
0.1143,-0.132525,571.5,-54.3216
0.1144,-0.121212,572,-50.9717
0.1145,-0.119596,572.5,-50.1095
0.1146,-0.121212,573,-48.4918
0.1147,-0.132121,573.5,-45.3106
0.1148,-0.156364,574,-46.9424
0.1149,-0.186667,574.5,-50.0024
0.115,-0.201616,575,-51.3976
0.1151,-0.201212,575.5,-51.2563
0.1152,-0.200404,576,-43.7299
0.1153,-0.203232,576.5,-47.8263
0.1154,-0.253737,577,-54.5579
0.1155,-0.270303,577.5,-51.6732
0.1156,-0.245657,578,-49.603
0.1157,-0.274747,578.5,-48.3847
0.1158,-0.291717,579,-49.5743
0.1159,-0.314747,579.5,-51.0693
0.116,-0.323636,580,-51.8589
0.1161,-0.347475,580.5,-55.2014
0.1162,-0.36404,581,-60
0.1163,-0.405657,581.5,-56.4963
0.1164,-0.44,582,-60
0.1165,-0.487677,582.5,-55.2155
0.1166,-0.506263,583,-51.2703
0.1167,-0.524444,583.5,-52.5015
0.1168,-0.527677,584,-56.5276
0.1169,-0.554343,584.5,-55.4862
0.117,-0.583434,585,-53.8393
0.1171,-0.615758,585.5,-47.5304
0.1172,-0.61899,586,-44.0202
0.1173,-0.659394,586.5,-52.9053
0.1174,-0.621414,587,-60
0.1175,-0.585455,587.5,-56.8716
0.1176,-0.549495,588,-50.4997
0.1177,-0.524848,588.5,-48.5197
0.1178,-0.526061,589,-47.5997
0.1179,-0.534141,589.5,-47.0875
0.118,-0.530909,590,-49.2817
0.1181,-0.518384,590.5,-50.1138
0.1182,-0.481616,591,-50.8259
0.1183,-0.416566,591.5,-52.3999
0.1184,-0.380202,592,-50.7657
0.1185,-0.364848,592.5,-51.3168
0.1186,-0.362828,593,-53.4957
0.1187,-0.357576,593.5,-60
0.1188,-0.334545,594,-55.5332
0.1189,-0.316364,594.5,-50.4613
0.119,-0.297374,595,-50.6196
0.1191,-0.344646,595.5,-45.5684
0.1192,-0.363636,596,-49.1256
0.1193,-0.364848,596.5,-60
0.1194,-0.385455,597,-57.8425
0.1195,-0.406465,597.5,-56.4734
0.1196,-0.391111,598,-56.1577
0.1197,-0.430707,598.5,-52.4619
0.1198,-0.444848,599,-53.2019
0.1199,-0.471515,599.5,-56.6019
0.12,-0.492929,600,-60
0.1201,-0.493737,600.5,-53.7985
0.1202,-0.525253,601,-49.8142
0.1203,-0.505859,601.5,-49.8187
0.1204,-0.488889,602,-53.1785
0.1205,-0.500606,602.5,-53.6421
0.1206,-0.499798,603,-53.0971
0.1207,-0.466263,603.5,-53.8529
0.1208,-0.392727,604,-60
0.1209,-0.346263,604.5,-60
0.121,-0.274343,605,-53.3102
0.1211,-0.21697,605.5,-45.2603
0.1212,-0.181818,606,-59.9737
0.1213,-0.140202,606.5,-60
0.1214,-0.157576,607,-52.7698
0.1215,-0.147879,607.5,-52.5848
0.1216,-0.11798,608,-54.9694
0.1217,-0.0836364,608.5,-53.5736
0.1218,-0.103838,609,-54.693
0.1219,-0.149495,609.5,-60
0.122,-0.216566,610,-52.5084
0.1221,-0.233131,610.5,-49.2682
0.1222,-0.277576,611,-52.226
0.1223,-0.290909,611.5,-57.2694
0.1224,-0.273535,612,-60
0.1225,-0.279192,612.5,-51.9899
0.1226,-0.292121,613,-49.2333
0.1227,-0.309495,613.5,-51.7561
0.1228,-0.290505,614,-50.654
0.1229,-0.265455,614.5,-57.1787
0.123,-0.212121,615,-45.7642
0.1231,-0.201616,615.5,-45.4174
0.1232,-0.213333,616,-52.0501
0.1233,-0.240808,616.5,-48.712
0.1234,-0.237172,617,-46.9337
0.1235,-0.239192,617.5,-50.6169
0.1236,-0.230303,618,-56.9754
0.1237,-0.22101,618.5,-58.3563
0.1238,-0.254949,619,-50.4554
0.1239,-0.270707,619.5,-47.6533
0.124,-0.246465,620,-50.2815
0.1241,-0.24404,620.5,-51.0905
0.1242,-0.242828,621,-58.0932
0.1243,-0.264646,621.5,-60
0.1244,-0.282828,622,-60
0.1245,-0.282424,622.5,-60
0.1246,-0.278788,623,-60
0.1247,-0.249697,623.5,-60
0.1248,-0.245253,624,-60
0.1249,-0.261414,624.5,-50.634
0.125,-0.28404,625,-46.2015
0.1251,-0.283636,625.5,-49.7506
0.1252,-0.286869,626,-47.901
0.1253,-0.28404,626.5,-48.1268
0.1254,-0.293737,627,-49.6751
0.1255,-0.302222,627.5,-55.7282
0.1256,-0.299798,628,-60
0.1257,-0.28404,628.5,-60
0.1258,-0.292121,629,-52.0653
0.1259,-0.302222,629.5,-49.661
0.126,-0.32404,630,-49.4346
0.1261,-0.351919,630.5,-49.9852
0.1262,-0.363636,631,-56.6602
0.1263,-0.389495,631.5,-60
0.1264,-0.396768,632,-60
0.1265,-0.433535,632.5,-60
0.1266,-0.436364,633,-60
0.1267,-0.439596,633.5,-54.6143
0.1268,-0.429091,634,-47.8255
0.1269,-0.441616,634.5,-42.0026
0.127,-0.454545,635,-44.4924
0.1271,-0.48404,635.5,-56.9852
0.1272,-0.473131,636,-60
0.1273,-0.482828,636.5,-60
0.1274,-0.476364,637,-56.1751
0.1275,-0.44404,637.5,-52.093
0.1276,-0.429899,638,-51.2195
0.1277,-0.432727,638.5,-52.3212
0.1278,-0.400404,639,-51.6786
0.1279,-0.391515,639.5,-52.2882
0.128,-0.363636,640,-54.9192
0.1281,-0.356768,640.5,-59.521
0.1282,-0.358384,641,-60
0.1283,-0.363636,641.5,-60
0.1284,-0.369293,642,-60
0.1285,-0.397172,642.5,-54.7877
0.1286,-0.396768,643,-52.4449
0.1287,-0.410101,643.5,-47.7685
0.1288,-0.398788,644,-42.0945
0.1289,-0.387475,644.5,-39.3606
0.129,-0.390303,645,-45.7646
0.1291,-0.423838,645.5,-51.5663
0.1292,-0.479596,646,-55.6372
0.1293,-0.522424,646.5,-60
0.1294,-0.528485,647,-56.4476
0.1295,-0.552323,647.5,-52.3283
0.1296,-0.572121,648,-55.8423
0.1297,-0.582222,648.5,-56.8781
0.1298,-0.60202,649,-55.6701
0.1299,-0.602424,649.5,-56.2375
0.13,-0.610909,650,-57.184
0.1301,-0.606061,650.5,-60
0.1302,-0.599192,651,-60
0.1303,-0.58101,651.5,-60
0.1304,-0.553939,652,-60
0.1305,-0.526061,652.5,-59.2149
0.1306,-0.525657,653,-53.1244
0.1307,-0.520808,653.5,-50.8499
0.1308,-0.490101,654,-46.583
0.1309,-0.474747,654.5,-46.9914
0.131,-0.468687,655,-54.308
0.1311,-0.442424,655.5,-53.8637
0.1312,-0.409697,656,-47.3592
0.1313,-0.383838,656.5,-47.0214
0.1314,-0.365657,657,-47.2972
0.1315,-0.348283,657.5,-49.5048
0.1316,-0.325253,658,-52.2
0.1317,-0.301414,658.5,-55.5147
0.1318,-0.28404,659,-60
0.1319,-0.274343,659.5,-51.4227
0.132,-0.256566,660,-49.6167
0.1321,-0.21697,660.5,-49.1442
0.1322,-0.202828,661,-53.9977
0.1323,-0.202424,661.5,-60
0.1324,-0.206061,662,-60
0.1325,-0.203636,662.5,-52.0487
0.1326,-0.203636,663,-49.0114
0.1327,-0.200404,663.5,-49.076
0.1328,-0.20202,664,-47.2759
0.1329,-0.197172,664.5,-51.6708
0.133,-0.167273,665,-55.5241
0.1331,-0.13697,665.5,-56.8492
0.1332,-0.140202,666,-52.8976
0.1333,-0.141818,666.5,-50.5185
0.1334,-0.150707,667,-49.3924
0.1335,-0.166465,667.5,-51.6062
0.1336,-0.163232,668,-56.8341
0.1337,-0.177374,668.5,-60
0.1338,-0.185051,669,-60
0.1339,-0.183434,669.5,-53.9895
0.134,-0.177374,670,-48.2972
0.1341,-0.172929,670.5,-46.6636
0.1342,-0.188687,671,-47.8809
0.1343,-0.20202,671.5,-49.9338
0.1344,-0.208889,672,-55.0381
0.1345,-0.245253,672.5,-60
0.1346,-0.264242,673,-52.1603
0.1347,-0.283232,673.5,-59.5493
0.1348,-0.297374,674,-60
0.1349,-0.324848,674.5,-52.6754
0.135,-0.348687,675,-53.4984
0.1351,-0.345455,675.5,-57.5822
0.1352,-0.328081,676,-60
0.1353,-0.323636,676.5,-60
0.1354,-0.33697,677,-58.6954
0.1355,-0.351111,677.5,-51.4435
0.1356,-0.353131,678,-48.8161
0.1357,-0.350707,678.5,-48.1749
0.1358,-0.338182,679,-49.4645
0.1359,-0.346667,679.5,-53.1755
0.136,-0.36,680,-54.3998
0.1361,-0.36404,680.5,-52.6406
0.1362,-0.377374,681,-51.9937
0.1363,-0.364444,681.5,-53.2004
0.1364,-0.363636,682,-50.5311
0.1365,-0.360808,682.5,-50.3715
0.1366,-0.356364,683,-60
0.1367,-0.362424,683.5,-45.5728
0.1368,-0.363636,684,-51.3865
0.1369,-0.363636,684.5,-60
0.137,-0.357172,685,-58.4964
0.1371,-0.323232,685.5,-60
0.1372,-0.314343,686,-58.7568
0.1373,-0.32202,686.5,-55.3834
0.1374,-0.357172,687,-52.8088
0.1375,-0.369697,687.5,-50.3242
0.1376,-0.432727,688,-51.2226
0.1377,-0.450909,688.5,-53.9835
0.1378,-0.465051,689,-55.3524
0.1379,-0.501414,689.5,-52.4334
0.138,-0.496566,690,-54.4019
0.1381,-0.520808,690.5,-57.9903
0.1382,-0.524848,691,-56.7926
0.1383,-0.525657,691.5,-59.1156
0.1384,-0.526061,692,-60
0.1385,-0.509091,692.5,-55.9004
0.1386,-0.500202,693,-43.3721
0.1387,-0.48202,693.5,-41.7766
0.1388,-0.448485,694,-48.3743
0.1389,-0.440808,694.5,-52.0958
0.139,-0.434747,695,-52.1996
0.1391,-0.409293,695.5,-54.1339
0.1392,-0.381414,696,-57.3079
0.1393,-0.368889,696.5,-55.0766
0.1394,-0.371717,697,-57.031
0.1395,-0.353131,697.5,-60
0.1396,-0.332121,698,-60
0.1397,-0.284848,698.5,-60
0.1398,-0.270303,699,-60
0.1399,-0.217374,699.5,-60
0.14,-0.177778,700,-60
0.1401,-0.119192,700.5,-53.492
0.1402,-0.0828283,701,-52.5622
0.1403,-0.0448485,701.5,-56.3359
0.1404,-0.00969697,702,-60
0.1405,0.00525253,702.5,-56.2804
0.1406,0.0218182,703,-45.5704
0.1407,0.0593939,703.5,-50.6257
0.1408,0.102626,704,-60
0.1409,0.120808,704.5,-59.5121
0.141,0.121212,705,-59.7891
0.1411,0.117172,705.5,-57.4422
0.1412,0.121212,706,-54.652
0.1413,0.12404,706.5,-54.6585
0.1414,0.108687,707,-57.8222
0.1415,0.0610101,707.5,-57.347
0.1416,0.0339394,708,-54.4645
0.1417,-0.0129293,708.5,-56.1688
0.1418,-0.0460606,709,-57.7203
0.1419,-0.109495,709.5,-55.488
0.142,-0.196364,710,-55.5538
0.1421,-0.241212,710.5,-54.4533
0.1422,-0.295354,711,-52.3497
0.1423,-0.357172,711.5,-53.257
0.1424,-0.389899,712,-56.4662
0.1425,-0.409293,712.5,-49.6695
0.1426,-0.406061,713,-49.3414
0.1427,-0.401616,713.5,-60
0.1428,-0.417374,714,-58.8905
0.1429,-0.403232,714.5,-60
0.143,-0.397172,715,-57.3703
0.1431,-0.365253,715.5,-54.9769
0.1432,-0.35798,716,-57.5483
0.1433,-0.326465,716.5,-59.8236
0.1434,-0.296566,717,-60
0.1435,-0.299394,717.5,-60
0.1436,-0.28404,718,-60
0.1437,-0.282828,718.5,-59.564
0.1438,-0.282828,719,-60
0.1439,-0.283232,719.5,-60
0.144,-0.309091,720,-60
0.1441,-0.336162,720.5,-60
0.1442,-0.349495,721,-60
0.1443,-0.363636,721.5,-55.0927
0.1444,-0.363636,722,-59.397
0.1445,-0.368081,722.5,-51.6482
0.1446,-0.366869,723,-56.4944
0.1447,-0.38303,723.5,-60
0.1448,-0.39798,724,-60
0.1449,-0.400404,724.5,-59.8958
0.145,-0.403232,725,-58.5752
0.1451,-0.401616,725.5,-54.9688
0.1452,-0.403636,726,-52.1891
0.1453,-0.405253,726.5,-55.9286
0.1454,-0.414545,727,-60
0.1455,-0.413333,727.5,-60
0.1456,-0.40404,728,-60
0.1457,-0.408889,728.5,-60
0.1458,-0.423838,729,-53.9152
0.1459,-0.418586,729.5,-53.4984
0.146,-0.419394,730,-53.5753
0.1461,-0.439192,730.5,-54.9371
0.1462,-0.408889,731,-60
0.1463,-0.375758,731.5,-60
0.1464,-0.349091,732,-49.5217
0.1465,-0.36202,732.5,-46.6818
0.1466,-0.363636,733,-54.2919
0.1467,-0.345455,733.5,-53.7499
0.1468,-0.351111,734,-55.4436
0.1469,-0.363636,734.5,-58.951
0.147,-0.365253,735,-54.0766
0.1471,-0.363636,735.5,-51.2502
0.1472,-0.348283,736,-56.1628
0.1473,-0.359192,736.5,-60
0.1474,-0.347071,737,-60
0.1475,-0.332525,737.5,-60
0.1476,-0.353939,738,-60
0.1477,-0.357576,738.5,-60
0.1478,-0.36404,739,-60
0.1479,-0.363636,739.5,-60
0.148,-0.360808,740,-57.1646
0.1481,-0.354343,740.5,-55.9807
0.1482,-0.36,741,-59.8676
0.1483,-0.363636,741.5,-60
0.1484,-0.363636,742,-46.4572
0.1485,-0.383434,742.5,-47.7312
0.1486,-0.387879,743,-49.7202
0.1487,-0.366869,743.5,-51.0993
0.1488,-0.364444,744,-52.8647
0.1489,-0.363636,744.5,-52.6139
0.149,-0.392727,745,-51.9432
0.1491,-0.398788,745.5,-51.3382
0.1492,-0.387071,746,-54.165
0.1493,-0.382222,746.5,-55.3924
0.1494,-0.375758,747,-57.415
0.1495,-0.37899,747.5,-60
0.1496,-0.368081,748,-60
0.1497,-0.378586,748.5,-56.7794
0.1498,-0.387879,749,-57.6614
0.1499,-0.363232,749.5,-57.4116
0.15,-0.363636,750,-60
0.1501,-0.359596,750.5,-60
0.1502,-0.365253,751,-58.0965
0.1503,-0.363636,751.5,-55.1707
0.1504,-0.360808,752,-48.2165
0.1505,-0.361616,752.5,-59.5129
0.1506,-0.360404,753,-60
0.1507,-0.362828,753.5,-60
0.1508,-0.357172,754,-57.5671
0.1509,-0.338586,754.5,-56.0794
0.151,-0.334141,755,-59.1963
0.1511,-0.344242,755.5,-57.9385
0.1512,-0.350707,756,-60
0.1513,-0.363636,756.5,-60
0.1514,-0.36404,757,-60
0.1515,-0.338586,757.5,-56.2612
0.1516,-0.359192,758,-56.2461
0.1517,-0.339394,758.5,-58.0416
0.1518,-0.329293,759,-58.8764
0.1519,-0.344242,759.5,-60
0.152,-0.351919,760,-60
0.1521,-0.356364,760.5,-60
0.1522,-0.359596,761,-60
0.1523,-0.346667,761.5,-48.0461
0.1524,-0.329697,762,-48.126
0.1525,-0.355152,762.5,-56.4941
0.1526,-0.359596,763,-60
0.1527,-0.364444,763.5,-60
0.1528,-0.365657,764,-60
0.1529,-0.362828,764.5,-60
0.153,-0.362424,765,-58.1373
0.1531,-0.362828,765.5,-60
0.1532,-0.349091,766,-60
0.1533,-0.345051,766.5,-56.7352
0.1534,-0.330505,767,-57.0341
0.1535,-0.343838,767.5,-58.1163
0.1536,-0.363232,768,-58.111
0.1537,-0.365253,768.5,-56.1359
0.1538,-0.363232,769,-58.2582
0.1539,-0.362424,769.5,-60
0.154,-0.363232,770,-60
0.1541,-0.362424,770.5,-53.8135
0.1542,-0.355556,771,-48.1367
0.1543,-0.361212,771.5,-45.2016
0.1544,-0.343838,772,-48.7193
0.1545,-0.340606,772.5,-51.976
0.1546,-0.339394,773,-52.1915
0.1547,-0.345859,773.5,-54.6713
0.1548,-0.353131,774,-59.1419
0.1549,-0.347071,774.5,-58.6472
0.155,-0.360808,775,-55.5841
0.1551,-0.344242,775.5,-54.894
0.1552,-0.325657,776,-55.8587
0.1553,-0.323636,776.5,-57.3064
0.1554,-0.322424,777,-60
0.1555,-0.318384,777.5,-55.5986
0.1556,-0.292121,778,-52.1258
0.1557,-0.296566,778.5,-52.4048
0.1558,-0.282828,779,-53.2861
0.1559,-0.283232,779.5,-59.62
0.156,-0.28404,780,-60
0.1561,-0.28404,780.5,-59.1508
0.1562,-0.28404,781,-50.6054
0.1563,-0.280404,781.5,-50.4898
0.1564,-0.282424,782,-56.7039
0.1565,-0.28404,782.5,-56.8591
0.1566,-0.281212,783,-59.685
0.1567,-0.274747,783.5,-60
0.1568,-0.271515,784,-60
0.1569,-0.258182,784.5,-60
0.157,-0.283636,785,-57.3772
0.1571,-0.285253,785.5,-60
0.1572,-0.297374,786,-60
0.1573,-0.315556,786.5,-60
0.1574,-0.314343,787,-60
0.1575,-0.311111,787.5,-57.7942
0.1576,-0.309091,788,-58.8604
0.1577,-0.320808,788.5,-60
0.1578,-0.356364,789,-60
0.1579,-0.364444,789.5,-59.4495
0.158,-0.366869,790,-60
0.1581,-0.36202,790.5,-54.0679
0.1582,-0.360808,791,-48.1803
0.1583,-0.363232,791.5,-48.5816
0.1584,-0.371717,792,-50.875
0.1585,-0.363636,792.5,-52.4975
0.1586,-0.363636,793,-53.4053
0.1587,-0.367273,793.5,-58.3659
0.1588,-0.380202,794,-60
0.1589,-0.393939,794.5,-59.1521
0.159,-0.393939,795,-57.1622
0.1591,-0.401212,795.5,-58.5222
0.1592,-0.417374,796,-60
0.1593,-0.418182,796.5,-60
0.1594,-0.450101,797,-60
0.1595,-0.465051,797.5,-60
0.1596,-0.431111,798,-55.8327
0.1597,-0.413737,798.5,-60
0.1598,-0.443636,799,-59.6097
0.1599,-0.442424,799.5,-53.8467
0.16,-0.427879,800,-52.4589
0.1601,-0.39798,800.5,-48.2096
0.1602,-0.366869,801,-51.6294
0.1603,-0.362828,801.5,-60
0.1604,-0.352727,802,-60
0.1605,-0.326869,802.5,-60
0.1606,-0.325657,803,-60
0.1607,-0.314747,803.5,-60
0.1608,-0.300606,804,-60
0.1609,-0.290909,804.5,-60
0.161,-0.284444,805,-60
0.1611,-0.289697,805.5,-60
0.1612,-0.28404,806,-60
0.1613,-0.28404,806.5,-58.361
0.1614,-0.283636,807,-57.4689
0.1615,-0.291717,807.5,-60
0.1616,-0.317172,808,-60
0.1617,-0.325253,808.5,-60
0.1618,-0.331717,809,-60
0.1619,-0.354747,809.5,-60
0.162,-0.328889,810,-60
0.1621,-0.302626,810.5,-53.3656
0.1622,-0.300606,811,-60
0.1623,-0.298182,811.5,-57.3904
0.1624,-0.31798,812,-54.3528
0.1625,-0.335758,812.5,-55.3804
0.1626,-0.332121,813,-60
0.1627,-0.294949,813.5,-60
0.1628,-0.306667,814,-60
0.1629,-0.33899,814.5,-60
0.163,-0.335758,815,-60
0.1631,-0.353939,815.5,-60
0.1632,-0.363636,816,-60
0.1633,-0.363636,816.5,-60
0.1634,-0.362424,817,-60
0.1635,-0.363232,817.5,-60
0.1636,-0.384242,818,-60
0.1637,-0.400404,818.5,-60
0.1638,-0.404848,819,-57.2467
0.1639,-0.404444,819.5,-54.9592
0.164,-0.392727,820,-52.9109
0.1641,-0.397172,820.5,-54.6911
0.1642,-0.409697,821,-60
0.1643,-0.427475,821.5,-60
0.1644,-0.413333,822,-60
0.1645,-0.423434,822.5,-60
0.1646,-0.442828,823,-60
0.1647,-0.453737,823.5,-60
0.1648,-0.41899,824,-60
0.1649,-0.43798,824.5,-56.3628
0.165,-0.427071,825,-54.3389
0.1651,-0.4,825.5,-57.8966
0.1652,-0.373737,826,-60
0.1653,-0.364848,826.5,-60
0.1654,-0.33697,827,-60
0.1655,-0.319596,827.5,-60
0.1656,-0.325657,828,-60
0.1657,-0.329293,828.5,-59.4977
0.1658,-0.329697,829,-60
0.1659,-0.333333,829.5,-60
0.166,-0.361212,830,-58.8385
0.1661,-0.363636,830.5,-59.689
0.1662,-0.360404,831,-58.8332
0.1663,-0.372121,831.5,-54.7197
0.1664,-0.386667,832,-54.1631
0.1665,-0.378586,832.5,-56.8125
0.1666,-0.366465,833,-60
0.1667,-0.363636,833.5,-60
0.1668,-0.354747,834,-60
0.1669,-0.337374,834.5,-60
0.167,-0.310707,835,-57.3754
0.1671,-0.305859,835.5,-58.6478
0.1672,-0.309899,836,-60
0.1673,-0.311515,836.5,-60
0.1674,-0.327273,837,-60
0.1675,-0.339394,837.5,-59.9139
0.1676,-0.323636,838,-60
0.1677,-0.319596,838.5,-60
0.1678,-0.301818,839,-60
0.1679,-0.282424,839.5,-60
0.168,-0.271111,840,-60
0.1681,-0.269091,840.5,-60
0.1682,-0.28,841,-60
0.1683,-0.270303,841.5,-58.3597
0.1684,-0.282424,842,-55.6748
0.1685,-0.282424,842.5,-56.1023
0.1686,-0.275556,843,-57.2658
0.1687,-0.238384,843.5,-57.3403
0.1688,-0.225859,844,-57.0691
0.1689,-0.203232,844.5,-55.6383
0.169,-0.169697,845,-55.6409
0.1691,-0.132525,845.5,-57.4885
0.1692,-0.120404,846,-55.512
0.1693,-0.0937374,846.5,-55.2957
0.1694,-0.0614141,847,-60
0.1695,-0.0509091,847.5,-60
0.1696,-0.0666667,848,-60
0.1697,-0.079596,848.5,-57.6064
0.1698,-0.125253,849,-60
0.1699,-0.192727,849.5,-58.8421
0.17,-0.216162,850,-57.4132
0.1701,-0.240404,850.5,-59.4407
0.1702,-0.297374,851,-59.3317
0.1703,-0.334141,851.5,-59.8858
0.1704,-0.367677,852,-60
0.1705,-0.37899,852.5,-60
0.1706,-0.393131,853,-57.9982
0.1707,-0.40404,853.5,-57.0453
0.1708,-0.405657,854,-59.2577
0.1709,-0.400404,854.5,-60
0.171,-0.404848,855,-58.9299
0.1711,-0.405657,855.5,-58.0545
0.1712,-0.40404,856,-56.7612
0.1713,-0.390707,856.5,-56.135
0.1714,-0.365657,857,-56.1061
0.1715,-0.363636,857.5,-56.2891
0.1716,-0.355556,858,-59.0215
0.1717,-0.34303,858.5,-60
0.1718,-0.341414,859,-60
0.1719,-0.293333,859.5,-60
0.172,-0.282828,860,-60
0.1721,-0.282828,860.5,-60
0.1722,-0.254141,861,-60
0.1723,-0.24404,861.5,-60
0.1724,-0.241212,862,-60
0.1725,-0.236768,862.5,-57.6946
0.1726,-0.24202,863,-60
0.1727,-0.241616,863.5,-60
0.1728,-0.243636,864,-58.0569
0.1729,-0.229899,864.5,-60
0.173,-0.222626,865,-60
0.1731,-0.235152,865.5,-60
0.1732,-0.259798,866,-60
0.1733,-0.274343,866.5,-60
0.1734,-0.282828,867,-60
0.1735,-0.286465,867.5,-60
0.1736,-0.270303,868,-60
0.1737,-0.243232,868.5,-60
0.1738,-0.244848,869,-60
0.1739,-0.271515,869.5,-60
0.174,-0.282828,870,-60
0.1741,-0.281212,870.5,-58.7596
0.1742,-0.296566,871,-57.2889
0.1743,-0.34101,871.5,-58.1141
0.1744,-0.362424,872,-59.6569
0.1745,-0.36404,872.5,-57.8532
0.1746,-0.364444,873,-58.8595
0.1747,-0.384242,873.5,-59.8906
0.1748,-0.409697,874,-60
0.1749,-0.436768,874.5,-60
0.175,-0.445253,875,-60
0.1751,-0.433535,875.5,-60
0.1752,-0.433131,876,-60
0.1753,-0.429899,876.5,-60
0.1754,-0.407677,877,-60
0.1755,-0.424646,877.5,-60
0.1756,-0.428283,878,-60
0.1757,-0.44404,878.5,-60
0.1758,-0.44202,879,-60
0.1759,-0.446869,879.5,-58.3989
0.176,-0.470303,880,-56.311
0.1761,-0.473939,880.5,-57.9689
0.1762,-0.510707,881,-60
0.1763,-0.518384,881.5,-60
0.1764,-0.524444,882,-60
0.1765,-0.537374,882.5,-60
0.1766,-0.550707,883,-59.6446
0.1767,-0.526869,883.5,-60
0.1768,-0.513131,884,-60
0.1769,-0.504242,884.5,-59.3126
0.177,-0.466263,885,-59.6573
0.1771,-0.469899,885.5,-60
0.1772,-0.45697,886,-60
0.1773,-0.442828,886.5,-59.3183
0.1774,-0.441616,887,-60
0.1775,-0.426667,887.5,-60
0.1776,-0.415758,888,-60
0.1777,-0.406465,888.5,-60
0.1778,-0.404444,889,-60
0.1779,-0.374545,889.5,-60
0.178,-0.363232,890,-60
0.1781,-0.362424,890.5,-60
0.1782,-0.358788,891,-60
0.1783,-0.36404,891.5,-60
0.1784,-0.387475,892,-60
0.1785,-0.425051,892.5,-60
0.1786,-0.444444,893,-60
0.1787,-0.450505,893.5,-60
0.1788,-0.446061,894,-60
0.1789,-0.428687,894.5,-60
0.179,-0.398384,895,-60
0.1791,-0.389495,895.5,-60
0.1792,-0.356768,896,-60
0.1793,-0.325657,896.5,-60
0.1794,-0.340202,897,-60
0.1795,-0.353131,897.5,-60
0.1796,-0.325657,898,-60
0.1797,-0.295758,898.5,-60
0.1798,-0.292121,899,-60
0.1799,-0.300202,899.5,-60
0.18,-0.347071,900,-60
0.1801,-0.362424,900.5,-60
0.1802,-0.363636,901,-60
0.1803,-0.366465,901.5,-60
0.1804,-0.374141,902,-60
0.1805,-0.409293,902.5,-60
0.1806,-0.439596,903,-60
0.1807,-0.447273,903.5,-60
0.1808,-0.448485,904,-60
0.1809,-0.465455,904.5,-60
0.181,-0.47596,905,-60
0.1811,-0.508687,905.5,-60
0.1812,-0.50303,906,-60
0.1813,-0.505859,906.5,-58.7703
0.1814,-0.523636,907,-58.7245
0.1815,-0.524444,907.5,-60
0.1816,-0.512323,908,-60
0.1817,-0.486465,908.5,-60
0.1818,-0.432727,909,-60
0.1819,-0.374545,909.5,-60
0.182,-0.356768,910,-60
0.1821,-0.326869,910.5,-60
0.1822,-0.328081,911,-60
0.1823,-0.334141,911.5,-60
0.1824,-0.356364,912,-60
0.1825,-0.363636,912.5,-60
0.1826,-0.370909,913,-60
0.1827,-0.402828,913.5,-60
0.1828,-0.425455,914,-60
0.1829,-0.44,914.5,-60
0.183,-0.453333,915,-60
0.1831,-0.452525,915.5,-60
0.1832,-0.408081,916,-60
0.1833,-0.414141,916.5,-60
0.1834,-0.414141,917,-60
0.1835,-0.436364,917.5,-59.0335
0.1836,-0.424242,918,-60
0.1837,-0.384646,918.5,-60
0.1838,-0.363636,919,-58.2399
0.1839,-0.346667,919.5,-59.7937
0.184,-0.319192,920,-60
0.1841,-0.330909,920.5,-59.3619
0.1842,-0.300202,921,-58.9304
0.1843,-0.282424,921.5,-60
0.1844,-0.280808,922,-60
0.1845,-0.275556,922.5,-60
0.1846,-0.244444,923,-60
0.1847,-0.243636,923.5,-60
0.1848,-0.233535,924,-60
0.1849,-0.212525,924.5,-60
0.185,-0.222626,925,-60
0.1851,-0.22101,925.5,-58.6185
0.1852,-0.208485,926,-59.1247
0.1853,-0.20202,926.5,-60
0.1854,-0.200404,927,-60
0.1855,-0.285657,927.5,-55.2164
0.1856,-0.356364,928,-56.9819
0.1857,-0.393939,928.5,-60
0.1858,-0.411717,929,-60
0.1859,-0.450505,929.5,-60
0.186,-0.512323,930,-60
0.1861,-0.525657,930.5,-60
0.1862,-0.530505,931,-60
0.1863,-0.54101,931.5,-60
0.1864,-0.531717,932,-60
0.1865,-0.540606,932.5,-60
0.1866,-0.525253,933,-60
0.1867,-0.514343,933.5,-60
0.1868,-0.483232,934,-60
0.1869,-0.503838,934.5,-60
0.187,-0.50303,935,-60
0.1871,-0.520808,935.5,-60
0.1872,-0.526061,936,-60
0.1873,-0.549091,936.5,-60
0.1874,-0.595152,937,-60
0.1875,-0.586263,937.5,-58.8093
0.1876,-0.593535,938,-60
0.1877,-0.605657,938.5,-60
0.1878,-0.606061,939,-60
0.1879,-0.621414,939.5,-60
0.188,-0.571313,940,-60
0.1881,-0.494949,940.5,-60
0.1882,-0.389899,941,-60
0.1883,-0.346263,941.5,-60
0.1884,-0.331717,942,-60
0.1885,-0.303838,942.5,-60
0.1886,-0.290909,943,-60
0.1887,-0.258586,943.5,-60
0.1888,-0.231919,944,-60
0.1889,-0.195556,944.5,-60
0.189,-0.133333,945,-60
0.1891,-0.110707,945.5,-60
0.1892,-0.0884848,946,-60
0.1893,-0.0412121,946.5,-60
0.1894,-0.00767677,947,-60
0.1895,0.029899,947.5,-60
0.1896,0.0412121,948,-60
0.1897,0.0642424,948.5,-60
0.1898,0.0739394,949,-60
0.1899,0.0521212,949.5,-60
0.19,0.0569697,950,-60
0.1901,0.0387879,950.5,-60
0.1902,0.0193939,951,-60
0.1903,-0.00121212,951.5,-59.7384
0.1904,-0.0282828,952,-60
0.1905,-0.060202,952.5,-60
0.1906,-0.101818,953,-60
0.1907,-0.121616,953.5,-60
0.1908,-0.149091,954,-60
0.1909,-0.176162,954.5,-60
0.191,-0.202424,955,-59.3443
0.1911,-0.213333,955.5,-60
0.1912,-0.249697,956,-60
0.1913,-0.281616,956.5,-60
0.1914,-0.282828,957,-60
0.1915,-0.294949,957.5,-59.8806
0.1916,-0.294949,958,-60
0.1917,-0.306667,958.5,-60
0.1918,-0.309899,959,-60
0.1919,-0.307879,959.5,-60
0.192,-0.295354,960,-60
0.1921,-0.302222,960.5,-60
0.1922,-0.291313,961,-60
0.1923,-0.246465,961.5,-60
0.1924,-0.221414,962,-60
0.1925,-0.233535,962.5,-60
0.1926,-0.238788,963,-60
0.1927,-0.253333,963.5,-60
0.1928,-0.258182,964,-60
0.1929,-0.282828,964.5,-59.4366
0.193,-0.298182,965,-60
0.1931,-0.349091,965.5,-60
0.1932,-0.347475,966,-60
0.1933,-0.36404,966.5,-53.6837
0.1934,-0.372525,967,-52.5696
0.1935,-0.380606,967.5,-56.4797
0.1936,-0.363636,968,-57.8613
0.1937,-0.36404,968.5,-60
0.1938,-0.382222,969,-60
0.1939,-0.40404,969.5,-60
0.194,-0.410101,970,-60
0.1941,-0.407273,970.5,-60
0.1942,-0.406869,971,-58.0262
0.1943,-0.423434,971.5,-58.2124
0.1944,-0.426667,972,-60
0.1945,-0.436364,972.5,-60
0.1946,-0.41697,973,-60
0.1947,-0.404444,973.5,-60
0.1948,-0.414949,974,-60
0.1949,-0.433131,974.5,-60
0.195,-0.435152,975,-60
0.1951,-0.435152,975.5,-60
0.1952,-0.425455,976,-55.443
0.1953,-0.418182,976.5,-49.1789
0.1954,-0.418182,977,-56.8914
0.1955,-0.418182,977.5,-60
0.1956,-0.404848,978,-60
0.1957,-0.401616,978.5,-60
0.1958,-0.391515,979,-60
0.1959,-0.375758,979.5,-59.7595
0.196,-0.364848,980,-60
0.1961,-0.393939,980.5,-60
0.1962,-0.399192,981,-60
0.1963,-0.38303,981.5,-60
0.1964,-0.374545,982,-60
0.1965,-0.398788,982.5,-60
0.1966,-0.400404,983,-60
0.1967,-0.400808,983.5,-60
0.1968,-0.422626,984,-60
0.1969,-0.439192,984.5,-60
0.197,-0.443636,985,-60
0.1971,-0.441616,985.5,-60
0.1972,-0.413737,986,-58.6561
0.1973,-0.386263,986.5,-58.2229
0.1974,-0.36404,987,-60
0.1975,-0.333737,987.5,-60
0.1976,-0.32202,988,-60
0.1977,-0.324848,988.5,-58.6411
0.1978,-0.329697,989,-58.1467
0.1979,-0.329697,989.5,-60
0.198,-0.346667,990,-60
0.1981,-0.329697,990.5,-60
0.1982,-0.320808,991,-58.9291
0.1983,-0.347475,991.5,-58.3418
0.1984,-0.36,992,-60
0.1985,-0.354343,992.5,-60
0.1986,-0.355556,993,-60
0.1987,-0.35596,993.5,-60
0.1988,-0.347879,994,-60
0.1989,-0.36202,994.5,-60
0.199,-0.351919,995,-60
0.1991,-0.354343,995.5,-56.9238
0.1992,-0.335758,996,-53.6251
0.1993,-0.322424,996.5,-60
0.1994,-0.312323,997,-60
0.1995,-0.289697,997.5,-60
0.1996,-0.309495,998,-60
0.1997,-0.301414,998.5,-60
0.1998,-0.308283,999,-60
0.1999,-0.310303,999.5,-60
0.2,-0.314747,1,000,-60
0.2001,-0.340202,1,000.5,-60
0.2002,-0.373333,1,001,-60
0.2003,-0.39798,1,001.5,-60
0.2004,-0.399192,1,002,-60
0.2005,-0.402828,1,002.5,-60
0.2006,-0.402828,1,003,-60
0.2007,-0.403232,1,003.5,-60
0.2008,-0.401212,1,004,-60
0.2009,-0.398788,1,004.5,-60
0.201,-0.401212,1,005,-60
0.2011,-0.405253,1,005.5,-54.4111
0.2012,-0.405253,1,006,-52.8494
0.2013,-0.403636,1,006.5,-60
0.2014,-0.40202,1,007,-60
0.2015,-0.394747,1,007.5,-60
0.2016,-0.374545,1,008,-60
0.2017,-0.393131,1,008.5,-60
0.2018,-0.403636,1,009,-60
0.2019,-0.403232,1,009.5,-60
0.202,-0.385455,1,010,-60
0.2021,-0.369293,1,010.5,-60
0.2022,-0.363636,1,011,-60
0.2023,-0.373333,1,011.5,-60
0.2024,-0.391111,1,012,-60
0.2025,-0.385455,1,012.5,-60
0.2026,-0.391919,1,013,-58.5278
0.2027,-0.383838,1,013.5,-60
0.2028,-0.385859,1,014,-60
0.2029,-0.400404,1,014.5,-60
0.203,-0.377778,1,015,-60
0.2031,-0.365253,1,015.5,-51.5317
0.2032,-0.363636,1,016,-58.9391
0.2033,-0.341414,1,016.5,-60
0.2034,-0.314747,1,017,-60
0.2035,-0.312727,1,017.5,-60
0.2036,-0.292121,1,018,-60
0.2037,-0.291313,1,018.5,-60
0.2038,-0.286061,1,019,-60
0.2039,-0.282828,1,019.5,-60
0.204,-0.282828,1,020,-60
0.2041,-0.279596,1,020.5,-60
0.2042,-0.242828,1,021,-60
0.2043,-0.24202,1,021.5,-60
0.2044,-0.245657,1,022,-60
0.2045,-0.204848,1,022.5,-60
0.2046,-0.202424,1,023,-60
0.2047,-0.20404,1,023.5,-60
0.2048,-0.213737,1,024,-60
0.2049,-0.206465,1,024.5,-60
0.205,-0.214141,1,025,-55.3033
0.2051,-0.231919,1,025.5,-51.9399
0.2052,-0.247677,1,026,-59.3907
0.2053,-0.535758,1,026.5,-60
0.2054,-0.824242,1,027,-60
0.2055,-0.994747,1,027.5,-60
0.2056,-1.08566,1,028,-60
0.2057,-1.13535,1,028.5,-60
0.2058,-1.15636,1,029,-60
0.2059,-1.16929,1,029.5,-60
0.206,-1.10626,1,030,-60
0.2061,-1.09253,1,030.5,-57.6407
0.2062,-1.06505,1,031,-58.0588
0.2063,-1.02707,1,031.5,-60
0.2064,-1.01051,1,032,-60
0.2065,-0.987879,1,032.5,-59.2796
0.2066,-0.953939,1,033,-60
0.2067,-0.909495,1,033.5,-60
0.2068,-0.850909,1,034,-60
0.2069,-0.848889,1,034.5,-60
0.207,-0.842828,1,035,-54.488
0.2071,-0.823838,1,035.5,-59.4488
0.2072,-0.795152,1,036,-60
0.2073,-0.795556,1,036.5,-60
0.2074,-0.776566,1,037,-60
0.2075,-0.718384,1,037.5,-59.9042
0.2076,-0.368889,1,038,-58.5856
0.2077,-0.112727,1,038.5,-58.7688
0.2078,0.0452525,1,039,-60
0.2079,0.147071,1,039.5,-60
0.208,0.197576,1,040,-60
0.2081,0.201616,1,040.5,-60
0.2082,0.191111,1,041,-60
0.2083,0.151111,1,041.5,-60
0.2084,0.122828,1,042,-60
0.2085,0.108687,1,042.5,-60
0.2086,0.0941414,1,043,-60
0.2087,0.0880808,1,043.5,-60
0.2088,0.0670707,1,044,-60
0.2089,0.0363636,1,044.5,-57.714
0.209,0.0137374,1,045,-54.3929
0.2091,-0.0040404,1,045.5,-60
0.2092,-0.00767677,1,046,-60
0.2093,-0.0383838,1,046.5,-60
0.2094,-0.0464646,1,047,-60
0.2095,-0.059798,1,047.5,-60
0.2096,-0.049697,1,048,-60
0.2097,-0.0416162,1,048.5,-60
0.2098,-0.0488889,1,049,-60
0.2099,-0.0428283,1,049.5,-60
0.21,-0.0618182,1,050,-60
0.2101,-0.079596,1,050.5,-60
0.2102,-0.110303,1,051,-60
0.2103,-0.121212,1,051.5,-60
0.2104,-0.119596,1,052,-60
0.2105,-0.120404,1,052.5,-60
0.2106,-0.122424,1,053,-60
0.2107,-0.121212,1,053.5,-60
0.2108,-0.125253,1,054,-60
0.2109,-0.122424,1,054.5,-51.3369
0.211,-0.12202,1,055,-57.2777
0.2111,-0.139394,1,055.5,-60
0.2112,-0.169293,1,056,-60
0.2113,-0.15798,1,056.5,-60
0.2114,-0.160808,1,057,-60
0.2115,-0.148687,1,057.5,-60
0.2116,-0.148283,1,058,-60
0.2117,-0.160808,1,058.5,-60
0.2118,-0.191919,1,059,-60
0.2119,-0.206061,1,059.5,-60
0.212,-0.220202,1,060,-60
0.2121,-0.210101,1,060.5,-60
0.2122,-0.226263,1,061,-60
0.2123,-0.23596,1,061.5,-60
0.2124,-0.258182,1,062,-60
0.2125,-0.278384,1,062.5,-60
0.2126,-0.294545,1,063,-60
0.2127,-0.32202,1,063.5,-60
0.2128,-0.320404,1,064,-51.8196
0.2129,-0.325253,1,064.5,-49.3292
0.213,-0.340202,1,065,-60
0.2131,-0.347475,1,065.5,-60
0.2132,-0.342626,1,066,-60
0.2133,-0.363232,1,066.5,-60
0.2134,-0.363232,1,067,-60
0.2135,-0.368081,1,067.5,-60
0.2136,-0.372929,1,068,-60
0.2137,-0.364848,1,068.5,-60
0.2138,-0.378182,1,069,-60
0.2139,-0.372929,1,069.5,-60
0.214,-0.39596,1,070,-60
0.2141,-0.395556,1,070.5,-60
0.2142,-0.398788,1,071,-60
0.2143,-0.406061,1,071.5,-60
0.2144,-0.401212,1,072,-60
0.2145,-0.384646,1,072.5,-60
0.2146,-0.40202,1,073,-60
0.2147,-0.406465,1,073.5,-60
0.2148,-0.398788,1,074,-51.4752
0.2149,-0.421414,1,074.5,-53.9303
0.215,-0.444444,1,075,-60
0.2151,-0.437576,1,075.5,-60
0.2152,-0.408485,1,076,-60
0.2153,-0.406465,1,076.5,-60
0.2154,-0.404444,1,077,-60
0.2155,-0.40404,1,077.5,-60
0.2156,-0.412929,1,078,-60
0.2157,-0.396768,1,078.5,-60
0.2158,-0.404444,1,079,-60
0.2159,-0.40404,1,079.5,-60
0.216,-0.404444,1,080,-60
0.2161,-0.372929,1,080.5,-60
0.2162,-0.39798,1,081,-60
0.2163,-0.372929,1,081.5,-60
0.2164,-0.36404,1,082,-60
0.2165,-0.355556,1,082.5,-60
0.2166,-0.362424,1,083,-60
0.2167,-0.363636,1,083.5,-60
0.2168,-0.36202,1,084,-55.1596
0.2169,-0.362828,1,084.5,-60
0.217,-0.363636,1,085,-60
0.2171,-0.363636,1,085.5,-60
0.2172,-0.362828,1,086,-60
0.2173,-0.371717,1,086.5,-60
0.2174,-0.38101,1,087,-60
0.2175,-0.412525,1,087.5,-60
0.2176,-0.417374,1,088,-60
0.2177,-0.414545,1,088.5,-60
0.2178,-0.371717,1,089,-60
0.2179,-0.352727,1,089.5,-60
0.218,-0.305051,1,090,-60
0.2181,-0.298182,1,090.5,-60
0.2182,-0.305051,1,091,-60
0.2183,-0.322424,1,091.5,-60
0.2184,-0.326061,1,092,-60
0.2185,-0.312727,1,092.5,-60
0.2186,-0.284444,1,093,-60
0.2187,-0.284848,1,093.5,-53.6951
0.2188,-0.272323,1,094,-57.487
0.2189,-0.278788,1,094.5,-60
0.219,-0.283636,1,095,-60
0.2191,-0.294545,1,095.5,-60
0.2192,-0.288081,1,096,-60
0.2193,-0.307071,1,096.5,-60
0.2194,-0.316364,1,097,-60
0.2195,-0.307475,1,097.5,-60
0.2196,-0.321616,1,098,-59.1387
0.2197,-0.327273,1,098.5,-59.6399
0.2198,-0.342626,1,099,-60
0.2199,-0.363232,1,099.5,-60
0.22,-0.343838,1,100,-60
0.2201,-0.32,1,100.5,-60
0.2202,-0.320808,1,101,-60
0.2203,-0.302222,1,101.5,-60
0.2204,-0.284444,1,102,-60
0.2205,-0.277172,1,102.5,-60
0.2206,-0.252525,1,103,-57.5329
0.2207,-0.227071,1,103.5,-52.8639
0.2208,-0.225859,1,104,-60
0.2209,-0.203232,1,104.5,-60
0.221,-0.20202,1,105,-60
0.2211,-0.223838,1,105.5,-60
0.2212,-0.243232,1,106,-60
0.2213,-0.248889,1,106.5,-60
0.2214,-0.287677,1,107,-60
0.2215,-0.310707,1,107.5,-60
0.2216,-0.311515,1,108,-60
0.2217,-0.325253,1,108.5,-60
0.2218,-0.329293,1,109,-60
0.2219,-0.35596,1,109.5,-60
0.222,-0.376162,1,110,-60
0.2221,-0.393131,1,110.5,-60
0.2222,-0.411717,1,111,-60
0.2223,-0.44404,1,111.5,-60
0.2224,-0.478788,1,112,-60
0.2225,-0.466263,1,112.5,-60
0.2226,-0.481212,1,113,-51.7011
0.2227,-0.484444,1,113.5,-53.6707
0.2228,-0.465455,1,114,-60
0.2229,-0.479192,1,114.5,-60
0.223,-0.475556,1,115,-59.0838
0.2231,-0.483232,1,115.5,-60
0.2232,-0.455354,1,116,-60
0.2233,-0.431515,1,116.5,-60
0.2234,-0.433535,1,117,-60
0.2235,-0.412121,1,117.5,-60
0.2236,-0.395152,1,118,-60
0.2237,-0.370505,1,118.5,-60
0.2238,-0.354343,1,119,-60
0.2239,-0.333333,1,119.5,-60
0.224,-0.32404,1,120,-58.6333
0.2241,-0.322424,1,120.5,-58.6786
0.2242,-0.353131,1,121,-60
0.2243,-0.362424,1,121.5,-60
0.2244,-0.353535,1,122,-60
0.2245,-0.333333,1,122.5,-60
0.2246,-0.323636,1,123,-54.022
0.2247,-0.304242,1,123.5,-59.0367
0.2248,-0.308283,1,124,-60
0.2249,-0.322828,1,124.5,-60
0.225,-0.300606,1,125,-60
0.2251,-0.322424,1,125.5,-60
0.2252,-0.339394,1,126,-60
0.2253,-0.35798,1,126.5,-60
0.2254,-0.366869,1,127,-60
0.2255,-0.392727,1,127.5,-60
0.2256,-0.370909,1,128,-60
0.2257,-0.400404,1,128.5,-60
0.2258,-0.405253,1,129,-60
0.2259,-0.435556,1,129.5,-60
0.226,-0.416566,1,130,-60
0.2261,-0.410101,1,130.5,-60
0.2262,-0.385859,1,131,-60
0.2263,-0.388687,1,131.5,-60
0.2264,-0.402424,1,132,-60
0.2265,-0.380606,1,132.5,-56.1583
0.2266,-0.363232,1,133,-55.8117
0.2267,-0.353939,1,133.5,-60
0.2268,-0.351515,1,134,-60
0.2269,-0.332929,1,134.5,-60
0.227,-0.312727,1,135,-60
0.2271,-0.342626,1,135.5,-60
0.2272,-0.328485,1,136,-60
0.2273,-0.302626,1,136.5,-60
0.2274,-0.319192,1,137,-60
0.2275,-0.336162,1,137.5,-60
0.2276,-0.358384,1,138,-60
0.2277,-0.36404,1,138.5,-60
0.2278,-0.378586,1,139,-60
0.2279,-0.40202,1,139.5,-60
0.228,-0.404848,1,140,-60
0.2281,-0.393939,1,140.5,-60
0.2282,-0.36404,1,141,-60
0.2283,-0.349495,1,141.5,-60
0.2284,-0.327677,1,142,-60
0.2285,-0.331717,1,142.5,-51.0638
0.2286,-0.32,1,143,-57.9241
0.2287,-0.283232,1,143.5,-60
0.2288,-0.281616,1,144,-60
0.2289,-0.28202,1,144.5,-60
0.229,-0.278788,1,145,-60
0.2291,-0.285253,1,145.5,-60
0.2292,-0.310707,1,146,-60
0.2293,-0.313939,1,146.5,-60
0.2294,-0.31596,1,147,-60
0.2295,-0.34303,1,147.5,-60
0.2296,-0.360808,1,148,-60
0.2297,-0.351919,1,148.5,-60
0.2298,-0.363636,1,149,-60
0.2299,-0.356364,1,149.5,-60
0.23,-0.330505,1,150,-60
0.2301,-0.321616,1,150.5,-60
0.2302,-0.295354,1,151,-60
0.2303,-0.279192,1,151.5,-60
0.2304,-0.265859,1,152,-52.8158
0.2305,-0.277576,1,152.5,-52.584
0.2306,-0.263434,1,153,-60
0.2307,-0.262626,1,153.5,-60
0.2308,-0.234747,1,154,-60
0.2309,-0.24,1,154.5,-60
0.231,-0.248889,1,155,-60
0.2311,-0.247273,1,155.5,-60
0.2312,-0.246061,1,156,-60
0.2313,-0.238788,1,156.5,-60
0.2314,-0.219798,1,157,-60
0.2315,-0.217778,1,157.5,-60
0.2316,-0.208889,1,158,-60
0.2317,-0.213333,1,158.5,-60
0.2318,-0.241212,1,159,-60
0.2319,-0.275152,1,159.5,-60
0.232,-0.282828,1,160,-60
0.2321,-0.280808,1,160.5,-60
0.2322,-0.277172,1,161,-60
0.2323,-0.284848,1,161.5,-57.3696
0.2324,-0.300202,1,162,-51.7416
0.2325,-0.326061,1,162.5,-60
0.2326,-0.309899,1,163,-60
0.2327,-0.309899,1,163.5,-60
0.2328,-0.345859,1,164,-60
0.2329,-0.389495,1,164.5,-60
0.233,-0.384242,1,165,-60
0.2331,-0.416566,1,165.5,-60
0.2332,-0.438788,1,166,-60
0.2333,-0.445657,1,166.5,-60
0.2334,-0.443636,1,167,-60
0.2335,-0.443636,1,167.5,-60
0.2336,-0.452525,1,168,-60
0.2337,-0.474343,1,168.5,-60
0.2338,-0.480808,1,169,-60
0.2339,-0.485657,1,169.5,-60
0.234,-0.482828,1,170,-60
0.2341,-0.476364,1,170.5,-60
0.2342,-0.487273,1,171,-60
0.2343,-0.481212,1,171.5,-54.3455
0.2344,-0.452121,1,172,-53.2467
0.2345,-0.448485,1,172.5,-60
0.2346,-0.438384,1,173,-60
0.2347,-0.389899,1,173.5,-60
0.2348,-0.363636,1,174,-60
0.2349,-0.340606,1,174.5,-60
0.235,-0.275556,1,175,-60
0.2351,-0.244444,1,175.5,-60
0.2352,-0.232323,1,176,-60
0.2353,-0.191111,1,176.5,-60
0.2354,-0.167677,1,177,-60
0.2355,-0.130505,1,177.5,-60
0.2356,-0.121616,1,178,-60
0.2357,-0.123636,1,178.5,-60
0.2358,-0.121616,1,179,-60
0.2359,-0.133333,1,179.5,-60
0.236,-0.153131,1,180,-57.5678
0.2361,-0.18101,1,180.5,-60
0.2362,-0.218182,1,181,-60
0.2363,-0.267475,1,181.5,-53.8465
0.2364,-0.28404,1,182,-57.4789
0.2365,-0.312727,1,182.5,-60
0.2366,-0.360808,1,183,-60
0.2367,-0.387475,1,183.5,-60
0.2368,-0.422222,1,184,-60
0.2369,-0.442424,1,184.5,-60
0.237,-0.460606,1,185,-60
0.2371,-0.462626,1,185.5,-60
0.2372,-0.470707,1,186,-60
0.2373,-0.443636,1,186.5,-60
0.2374,-0.404444,1,187,-60
0.2375,-0.402828,1,187.5,-60
0.2376,-0.388283,1,188,-60
0.2377,-0.363232,1,188.5,-60
0.2378,-0.363636,1,189,-60
0.2379,-0.345859,1,189.5,-60
0.238,-0.325253,1,190,-60
0.2381,-0.294545,1,190.5,-60
0.2382,-0.305455,1,191,-59.9173
0.2383,-0.312727,1,191.5,-57.1952
0.2384,-0.285253,1,192,-60
0.2385,-0.282828,1,192.5,-60
0.2386,-0.288081,1,193,-60
0.2387,-0.297374,1,193.5,-60
0.2388,-0.335354,1,194,-60
0.2389,-0.355556,1,194.5,-60
0.239,-0.343434,1,195,-60
0.2391,-0.353535,1,195.5,-60
0.2392,-0.328081,1,196,-60
0.2393,-0.356364,1,196.5,-60
0.2394,-0.352727,1,197,-60
0.2395,-0.363636,1,197.5,-60
0.2396,-0.364444,1,198,-60
0.2397,-0.365253,1,198.5,-60
0.2398,-0.36202,1,199,-60
0.2399,-0.33697,1,199.5,-60
0.24,-0.343838,1,200,-60
0.2401,-0.34303,1,200.5,-60
0.2402,-0.330505,1,201,-54.7254
0.2403,-0.316364,1,201.5,-59.0234
0.2404,-0.32,1,202,-60
0.2405,-0.30101,1,202.5,-60
0.2406,-0.312323,1,203,-60
0.2407,-0.295354,1,203.5,-60
0.2408,-0.283232,1,204,-60
0.2409,-0.256566,1,204.5,-60
0.241,-0.238384,1,205,-60
0.2411,-0.210101,1,205.5,-60
0.2412,-0.20202,1,206,-60
0.2413,-0.190707,1,206.5,-60
0.2414,-0.159192,1,207,-60
0.2415,-0.15798,1,207.5,-60
0.2416,-0.162828,1,208,-60
0.2417,-0.177778,1,208.5,-60
0.2418,-0.190303,1,209,-60
0.2419,-0.157576,1,209.5,-60
0.242,-0.16404,1,210,-60
0.2421,-0.152323,1,210.5,-56.8807
0.2422,-0.150303,1,211,-55.6644
0.2423,-0.168889,1,211.5,-59.8267
0.2424,-0.160808,1,212,-60
0.2425,-0.165253,1,212.5,-60
0.2426,-0.198384,1,213,-60
0.2427,-0.20202,1,213.5,-60
0.2428,-0.212525,1,214,-60
0.2429,-0.219798,1,214.5,-60
0.243,-0.23596,1,215,-60
0.2431,-0.242424,1,215.5,-60
0.2432,-0.237576,1,216,-60
0.2433,-0.233939,1,216.5,-60
0.2434,-0.254545,1,217,-60
0.2435,-0.25899,1,217.5,-60
0.2436,-0.281212,1,218,-60
0.2437,-0.292929,1,218.5,-60
0.2438,-0.295354,1,219,-60
0.2439,-0.32404,1,219.5,-60
0.244,-0.353939,1,220,-58.3319
0.2441,-0.373737,1,220.5,-53.6946
0.2442,-0.378182,1,221,-60
0.2443,-0.362828,1,221.5,-60
0.2444,-0.363636,1,222,-60
0.2445,-0.362828,1,222.5,-60
0.2446,-0.330505,1,223,-60
0.2447,-0.318384,1,223.5,-60
0.2448,-0.342626,1,224,-60
0.2449,-0.33899,1,224.5,-60
0.245,-0.352727,1,225,-60
0.2451,-0.338182,1,225.5,-60
0.2452,-0.362828,1,226,-60
0.2453,-0.358384,1,226.5,-60
0.2454,-0.355556,1,227,-60
0.2455,-0.362424,1,227.5,-60
0.2456,-0.374141,1,228,-60
0.2457,-0.401616,1,228.5,-60
0.2458,-0.407677,1,229,-60
0.2459,-0.421414,1,229.5,-60
0.246,-0.418182,1,230,-57.8613
0.2461,-0.394343,1,230.5,-56.448
0.2462,-0.39798,1,231,-60
0.2463,-0.416162,1,231.5,-60
0.2464,-0.430303,1,232,-60
0.2465,-0.407677,1,232.5,-60
0.2466,-0.399192,1,233,-60
0.2467,-0.360404,1,233.5,-60
0.2468,-0.363636,1,234,-60
0.2469,-0.36404,1,234.5,-60
0.247,-0.363636,1,235,-60
0.2471,-0.363636,1,235.5,-60
0.2472,-0.363636,1,236,-60
0.2473,-0.363636,1,236.5,-60
0.2474,-0.361212,1,237,-60
0.2475,-0.362828,1,237.5,-60
0.2476,-0.359192,1,238,-60
0.2477,-0.35596,1,238.5,-60
0.2478,-0.348283,1,239,-60
0.2479,-0.351919,1,239.5,-60
0.248,-0.348283,1,240,-59.9612
0.2481,-0.36202,1,240.5,-60
0.2482,-0.363636,1,241,-60
0.2483,-0.38101,1,241.5,-60
0.2484,-0.408485,1,242,-60
0.2485,-0.433131,1,242.5,-60
0.2486,-0.459394,1,243,-60
0.2487,-0.456566,1,243.5,-60
0.2488,-0.433939,1,244,-60
0.2489,-0.417374,1,244.5,-60
0.249,-0.425859,1,245,-60
0.2491,-0.437172,1,245.5,-60
0.2492,-0.404848,1,246,-60
0.2493,-0.391515,1,246.5,-60
0.2494,-0.402424,1,247,-60
0.2495,-0.401212,1,247.5,-60
0.2496,-0.387071,1,248,-60
0.2497,-0.372929,1,248.5,-60
0.2498,-0.380606,1,249,-60
0.2499,-0.381818,1,249.5,-60
0.25,-0.390303,1,250,-60
0.2501,-0.373333,1,250.5,-60
0.2502,-0.364848,1,251,-60
0.2503,-0.375758,1,251.5,-60
0.2504,-0.385455,1,252,-60
0.2505,-0.389899,1,252.5,-60
0.2506,-0.375354,1,253,-60
0.2507,-0.371313,1,253.5,-60
0.2508,-0.394747,1,254,-60
0.2509,-0.403232,1,254.5,-60
0.251,-0.402828,1,255,-60
0.2511,-0.422222,1,255.5,-60
0.2512,-0.443232,1,256,-60
0.2513,-0.433535,1,256.5,-60
0.2514,-0.459798,1,257,-60
0.2515,-0.503434,1,257.5,-60
0.2516,-0.531313,1,258,-60
0.2517,-0.566869,1,258.5,-60
0.2518,-0.605253,1,259,-60
0.2519,-0.602828,1,259.5,-56.6242
0.252,-0.614545,1,260,-57.7047
0.2521,-0.65899,1,260.5,-60
0.2522,-0.668687,1,261,-60
0.2523,-0.654141,1,261.5,-60
0.2524,-0.647273,1,262,-60
0.2525,-0.630303,1,262.5,-60
0.2526,-0.606061,1,263,-60
0.2527,-0.566061,1,263.5,-60
0.2528,-0.537374,1,264,-60
0.2529,-0.532525,1,264.5,-60
0.253,-0.515556,1,265,-60
0.2531,-0.469899,1,265.5,-60
0.2532,-0.422222,1,266,-60
0.2533,-0.366465,1,266.5,-60
0.2534,-0.326061,1,267,-60
0.2535,-0.300606,1,267.5,-60
0.2536,-0.286061,1,268,-60
0.2537,-0.282828,1,268.5,-60
0.2538,-0.282828,1,269,-57.9447
0.2539,-0.27798,1,269.5,-55.0702
0.254,-0.249293,1,270,-60
0.2541,-0.281616,1,270.5,-60
0.2542,-0.291717,1,271,-60
0.2543,-0.282424,1,271.5,-60
0.2544,-0.27798,1,272,-60
0.2545,-0.234343,1,272.5,-60
0.2546,-0.205253,1,273,-60
0.2547,-0.183434,1,273.5,-60
0.2548,-0.201212,1,274,-60
0.2549,-0.20202,1,274.5,-60
0.255,-0.202828,1,275,-60
0.2551,-0.20202,1,275.5,-60
0.2552,-0.203232,1,276,-60
0.2553,-0.192727,1,276.5,-60
0.2554,-0.178182,1,277,-60
0.2555,-0.192323,1,277.5,-60
0.2556,-0.160808,1,278,-60
0.2557,-0.158788,1,278.5,-60
0.2558,-0.14303,1,279,-60
0.2559,-0.121616,1,279.5,-60
0.256,-0.146667,1,280,-60
0.2561,-0.195152,1,280.5,-60
0.2562,-0.199192,1,281,-60
0.2563,-0.193131,1,281.5,-60
0.2564,-0.209697,1,282,-60
0.2565,-0.250909,1,282.5,-60
0.2566,-0.282828,1,283,-60
0.2567,-0.299798,1,283.5,-60
0.2568,-0.323636,1,284,-60
0.2569,-0.346263,1,284.5,-60
0.257,-0.362424,1,285,-60
0.2571,-0.363636,1,285.5,-60
0.2572,-0.363636,1,286,-60
0.2573,-0.362828,1,286.5,-60
0.2574,-0.347475,1,287,-60
0.2575,-0.305859,1,287.5,-60
0.2576,-0.284848,1,288,-60
0.2577,-0.27798,1,288.5,-60
0.2578,-0.273939,1,289,-60
0.2579,-0.223838,1,289.5,-60
0.258,-0.189899,1,290,-60
0.2581,-0.131717,1,290.5,-60
0.2582,-0.118384,1,291,-60
0.2583,-0.0961616,1,291.5,-60
0.2584,-0.0670707,1,292,-60
0.2585,-0.0424242,1,292.5,-60
0.2586,-0.0432323,1,293,-60
0.2587,-0.00646465,1,293.5,-60
0.2588,-0.00808081,1,294,-60
0.2589,-0.0355556,1,294.5,-60
0.259,-0.0444444,1,295,-59.9338
0.2591,-0.0844444,1,295.5,-60
0.2592,-0.132525,1,296,-60
0.2593,-0.181414,1,296.5,-60
0.2594,-0.20202,1,297,-60
0.2595,-0.22303,1,297.5,-60
0.2596,-0.243232,1,298,-60
0.2597,-0.279596,1,298.5,-60
0.2598,-0.277172,1,299,-60
0.2599,-0.282828,1,299.5,-60
0.26,-0.259394,1,300,-60
0.2601,-0.240808,1,300.5,-60
0.2602,-0.255758,1,301,-60
0.2603,-0.250101,1,301.5,-60
0.2604,-0.245253,1,302,-60
0.2605,-0.268687,1,302.5,-60
0.2606,-0.249697,1,303,-60
0.2607,-0.256162,1,303.5,-60
0.2608,-0.248081,1,304,-60
0.2609,-0.246061,1,304.5,-60
0.261,-0.27798,1,305,-60
0.2611,-0.306667,1,305.5,-60
0.2612,-0.294545,1,306,-60
0.2613,-0.323636,1,306.5,-60
0.2614,-0.322424,1,307,-60
0.2615,-0.330101,1,307.5,-60
0.2616,-0.359596,1,308,-60
0.2617,-0.363636,1,308.5,-60
0.2618,-0.363636,1,309,-60
0.2619,-0.364444,1,309.5,-60
0.262,-0.37697,1,310,-60
0.2621,-0.400808,1,310.5,-60
0.2622,-0.39596,1,311,-60
0.2623,-0.401616,1,311.5,-60
0.2624,-0.404444,1,312,-60
0.2625,-0.404444,1,312.5,-60
0.2626,-0.372121,1,313,-60
0.2627,-0.364444,1,313.5,-60
0.2628,-0.363636,1,314,-60
0.2629,-0.365253,1,314.5,-60
0.263,-0.362424,1,315,-60
0.2631,-0.368485,1,315.5,-60
0.2632,-0.36404,1,316,-60
0.2633,-0.370909,1,316.5,-60
0.2634,-0.373333,1,317,-60
0.2635,-0.366061,1,317.5,-60
0.2636,-0.363636,1,318,-60
0.2637,-0.368081,1,318.5,-60
0.2638,-0.369293,1,319,-60
0.2639,-0.37697,1,319.5,-60
0.264,-0.365657,1,320,-60
0.2641,-0.372929,1,320.5,-60
0.2642,-0.365253,1,321,-60
0.2643,-0.363636,1,321.5,-60
0.2644,-0.363636,1,322,-60
0.2645,-0.36202,1,322.5,-60
0.2646,-0.353131,1,323,-60
0.2647,-0.36202,1,323.5,-60
0.2648,-0.385455,1,324,-60
0.2649,-0.403232,1,324.5,-60
0.265,-0.400808,1,325,-60
0.2651,-0.401212,1,325.5,-60
0.2652,-0.399192,1,326,-60
0.2653,-0.401616,1,326.5,-60
0.2654,-0.453333,1,327,-60
0.2655,-0.487273,1,327.5,-60
0.2656,-0.494141,1,328,-60
0.2657,-0.476364,1,328.5,-60
0.2658,-0.480404,1,329,-60
0.2659,-0.486869,1,329.5,-60
0.266,-0.454545,1,330,-60
0.2661,-0.452525,1,330.5,-60
0.2662,-0.489293,1,331,-60
0.2663,-0.492929,1,331.5,-60
0.2664,-0.520808,1,332,-60
0.2665,-0.52404,1,332.5,-60
0.2666,-0.522828,1,333,-60
0.2667,-0.523232,1,333.5,-60
0.2668,-0.476364,1,334,-60
0.2669,-0.440404,1,334.5,-60
0.267,-0.408889,1,335,-60
0.2671,-0.403636,1,335.5,-60
0.2672,-0.376162,1,336,-60
0.2673,-0.354343,1,336.5,-60
0.2674,-0.328081,1,337,-60
0.2675,-0.29697,1,337.5,-60
0.2676,-0.282828,1,338,-60
0.2677,-0.279192,1,338.5,-60
0.2678,-0.282424,1,339,-60
0.2679,-0.268283,1,339.5,-60
0.268,-0.267475,1,340,-60
0.2681,-0.252929,1,340.5,-60
0.2682,-0.270707,1,341,-60
0.2683,-0.317172,1,341.5,-60
0.2684,-0.321212,1,342,-60
0.2685,-0.326061,1,342.5,-60
0.2686,-0.334949,1,343,-60
0.2687,-0.341414,1,343.5,-60
0.2688,-0.327677,1,344,-60
0.2689,-0.315152,1,344.5,-60
0.269,-0.296162,1,345,-60
0.2691,-0.271111,1,345.5,-60
0.2692,-0.249697,1,346,-60
0.2693,-0.213333,1,346.5,-60
0.2694,-0.20202,1,347,-60
0.2695,-0.200808,1,347.5,-60
0.2696,-0.172121,1,348,-60
0.2697,-0.159596,1,348.5,-60
0.2698,-0.171313,1,349,-60
0.2699,-0.170909,1,349.5,-60
0.27,-0.203232,1,350,-60
0.2701,-0.244848,1,350.5,-60
0.2702,-0.263434,1,351,-60
0.2703,-0.265455,1,351.5,-60
0.2704,-0.302222,1,352,-60
0.2705,-0.344242,1,352.5,-60
0.2706,-0.363636,1,353,-60
0.2707,-0.367273,1,353.5,-60
0.2708,-0.372525,1,354,-60
0.2709,-0.377778,1,354.5,-60
0.271,-0.401212,1,355,-60
0.2711,-0.370505,1,355.5,-60
0.2712,-0.379798,1,356,-60
0.2713,-0.376566,1,356.5,-60
0.2714,-0.353535,1,357,-60
0.2715,-0.327677,1,357.5,-60
0.2716,-0.32,1,358,-60
0.2717,-0.298182,1,358.5,-60
0.2718,-0.285253,1,359,-60
0.2719,-0.282828,1,359.5,-60
0.272,-0.275556,1,360,-60
0.2721,-0.268687,1,360.5,-60
0.2722,-0.286869,1,361,-60
0.2723,-0.324444,1,361.5,-60
0.2724,-0.340606,1,362,-60
0.2725,-0.347475,1,362.5,-60
0.2726,-0.368485,1,363,-60
0.2727,-0.374141,1,363.5,-60
0.2728,-0.364848,1,364,-60
0.2729,-0.379798,1,364.5,-60
0.273,-0.381414,1,365,-60
0.2731,-0.371313,1,365.5,-60
0.2732,-0.363636,1,366,-60
0.2733,-0.349899,1,366.5,-60
0.2734,-0.36,1,367,-60
0.2735,-0.36202,1,367.5,-60
0.2736,-0.341414,1,368,-60
0.2737,-0.352727,1,368.5,-60
0.2738,-0.361212,1,369,-60
0.2739,-0.358788,1,369.5,-60
0.274,-0.376162,1,370,-60
0.2741,-0.374545,1,370.5,-60
0.2742,-0.388283,1,371,-60
0.2743,-0.398384,1,371.5,-60
0.2744,-0.395556,1,372,-60
0.2745,-0.403232,1,372.5,-60
0.2746,-0.407677,1,373,-60
0.2747,-0.404444,1,373.5,-60
0.2748,-0.389091,1,374,-60
0.2749,-0.398788,1,374.5,-60
0.275,-0.366869,1,375,-60
0.2751,-0.36404,1,375.5,-60
0.2752,-0.36404,1,376,-60
0.2753,-0.353131,1,376.5,-60
0.2754,-0.363232,1,377,-60
0.2755,-0.363636,1,377.5,-60
0.2756,-0.368081,1,378,-60
0.2757,-0.39798,1,378.5,-60
0.2758,-0.425455,1,379,-60
0.2759,-0.424242,1,379.5,-60
0.276,-0.444444,1,380,-60
0.2761,-0.451313,1,380.5,-60
0.2762,-0.449697,1,381,-60
0.2763,-0.438384,1,381.5,-60
0.2764,-0.43596,1,382,-60
0.2765,-0.44404,1,382.5,-60
0.2766,-0.462222,1,383,-60
0.2767,-0.472323,1,383.5,-60
0.2768,-0.45697,1,384,-60
0.2769,-0.47798,1,384.5,-60
0.277,-0.515152,1,385,-60
0.2771,-0.525253,1,385.5,-60
0.2772,-0.524848,1,386,-60
0.2773,-0.525253,1,386.5,-60
0.2774,-0.530505,1,387,-60
0.2775,-0.565657,1,387.5,-60
0.2776,-0.600808,1,388,-60
0.2777,-0.606869,1,388.5,-60
0.2778,-0.654949,1,389,-60
0.2779,-0.662222,1,389.5,-60
0.278,-0.671919,1,390,-60
0.2781,-0.620202,1,390.5,-60
0.2782,-0.596768,1,391,-60
0.2783,-0.602424,1,391.5,-60
0.2784,-0.586263,1,392,-60
0.2785,-0.561212,1,392.5,-60
0.2786,-0.532121,1,393,-60
0.2787,-0.526465,1,393.5,-60
0.2788,-0.524848,1,394,-60
0.2789,-0.510303,1,394.5,-60
0.279,-0.444444,1,395,-60
0.2791,-0.376162,1,395.5,-60
0.2792,-0.300606,1,396,-60
0.2793,-0.282828,1,396.5,-59.5677
0.2794,-0.255354,1,397,-60
0.2795,-0.240404,1,397.5,-60
0.2796,-0.217778,1,398,-60
0.2797,-0.194343,1,398.5,-60
0.2798,-0.176162,1,399,-60
0.2799,-0.194747,1,399.5,-60
0.28,-0.180606,1,400,-60
0.2801,-0.162424,1,400.5,-60
0.2802,-0.152323,1,401,-60
0.2803,-0.140202,1,401.5,-60
0.2804,-0.137778,1,402,-60
0.2805,-0.166869,1,402.5,-60
0.2806,-0.20202,1,403,-60
0.2807,-0.217374,1,403.5,-60
0.2808,-0.20202,1,404,-60
0.2809,-0.19596,1,404.5,-60
0.281,-0.187879,1,405,-60
0.2811,-0.18303,1,405.5,-60
0.2812,-0.18303,1,406,-60
0.2813,-0.178182,1,406.5,-60
0.2814,-0.198384,1,407,-60
0.2815,-0.20202,1,407.5,-60
0.2816,-0.202424,1,408,-60
0.2817,-0.202424,1,408.5,-60
0.2818,-0.203636,1,409,-60
0.2819,-0.251717,1,409.5,-60
0.282,-0.294949,1,410,-60
0.2821,-0.335758,1,410.5,-60
0.2822,-0.363636,1,411,-60
0.2823,-0.385455,1,411.5,-60
0.2824,-0.401212,1,412,-60
0.2825,-0.403636,1,412.5,-60
0.2826,-0.414545,1,413,-60
0.2827,-0.444848,1,413.5,-60
0.2828,-0.446061,1,414,-60
0.2829,-0.43596,1,414.5,-60
0.283,-0.406061,1,415,-60
0.2831,-0.401616,1,415.5,-60
0.2832,-0.362424,1,416,-60
0.2833,-0.311111,1,416.5,-60
0.2834,-0.282424,1,417,-60
0.2835,-0.256566,1,417.5,-60
0.2836,-0.207273,1,418,-60
0.2837,-0.151515,1,418.5,-60
0.2838,-0.122424,1,419,-60
0.2839,-0.0973737,1,419.5,-60
0.284,-0.0820202,1,420,-60
0.2841,-0.0658586,1,420.5,-60
0.2842,-0.0739394,1,421,-60
0.2843,-0.0690909,1,421.5,-60
0.2844,-0.0727273,1,422,-60
0.2845,-0.0529293,1,422.5,-60
0.2846,-0.0505051,1,423,-60
0.2847,-0.0666667,1,423.5,-60
0.2848,-0.0618182,1,424,-60
0.2849,-0.109899,1,424.5,-60
0.285,-0.126061,1,425,-60
0.2851,-0.132121,1,425.5,-56.4665
0.2852,-0.130505,1,426,-58.2796
0.2853,-0.171313,1,426.5,-60
0.2854,-0.195152,1,427,-60
0.2855,-0.206061,1,427.5,-60
0.2856,-0.215354,1,428,-60
0.2857,-0.203232,1,428.5,-60
0.2858,-0.21697,1,429,-60
0.2859,-0.325253,1,429.5,-60
0.286,-0.428687,1,430,-60
0.2861,-0.510303,1,430.5,-60
0.2862,-0.553535,1,431,-60
0.2863,-0.564444,1,431.5,-60
0.2864,-0.584646,1,432,-60
0.2865,-0.601616,1,432.5,-60
0.2866,-0.60404,1,433,-60
0.2867,-0.606465,1,433.5,-60
0.2868,-0.606061,1,434,-60
0.2869,-0.608485,1,434.5,-60
0.287,-0.605657,1,435,-60
0.2871,-0.587879,1,435.5,-55.7121
0.2872,-0.599192,1,436,-60
0.2873,-0.6,1,436.5,-60
0.2874,-0.580202,1,437,-60
0.2875,-0.553535,1,437.5,-60
0.2876,-0.546667,1,438,-60
0.2877,-0.536566,1,438.5,-60
0.2878,-0.527677,1,439,-60
0.2879,-0.549495,1,439.5,-60
0.288,-0.565253,1,440,-60
0.2881,-0.567273,1,440.5,-60
0.2882,-0.564444,1,441,-60
0.2883,-0.566465,1,441.5,-60
0.2884,-0.56202,1,442,-60
0.2885,-0.452525,1,442.5,-60
0.2886,-0.374141,1,443,-60
0.2887,-0.346263,1,443.5,-60
0.2888,-0.314343,1,444,-60
0.2889,-0.276768,1,444.5,-60
0.289,-0.27798,1,445,-54.5841
0.2891,-0.282828,1,445.5,-57.6936
0.2892,-0.269899,1,446,-60
0.2893,-0.247273,1,446.5,-60
0.2894,-0.263434,1,447,-60
0.2895,-0.275152,1,447.5,-60
0.2896,-0.260202,1,448,-60
0.2897,-0.28202,1,448.5,-60
0.2898,-0.28,1,449,-60
0.2899,-0.28404,1,449.5,-60
0.29,-0.289697,1,450,-60
0.2901,-0.321616,1,450.5,-60
0.2902,-0.313535,1,451,-60
0.2903,-0.282828,1,451.5,-60
0.2904,-0.294949,1,452,-60
0.2905,-0.284444,1,452.5,-60
0.2906,-0.282828,1,453,-60
0.2907,-0.286869,1,453.5,-60
0.2908,-0.288889,1,454,-60
0.2909,-0.28202,1,454.5,-60
0.291,-0.263838,1,455,-60
0.2911,-0.278384,1,455.5,-60
0.2912,-0.288485,1,456,-60
0.2913,-0.303838,1,456.5,-60
0.2914,-0.323232,1,457,-60
0.2915,-0.353535,1,457.5,-60
0.2916,-0.362828,1,458,-60
0.2917,-0.362424,1,458.5,-60
0.2918,-0.363636,1,459,-60
0.2919,-0.366869,1,459.5,-60
0.292,-0.36404,1,460,-60
0.2921,-0.365253,1,460.5,-60
0.2922,-0.363636,1,461,-60
0.2923,-0.36404,1,461.5,-60
0.2924,-0.359596,1,462,-60
0.2925,-0.346667,1,462.5,-60
0.2926,-0.351111,1,463,-60
0.2927,-0.337778,1,463.5,-60
0.2928,-0.342222,1,464,-60
0.2929,-0.356364,1,464.5,-60
0.293,-0.350707,1,465,-60
0.2931,-0.357172,1,465.5,-60
0.2932,-0.347475,1,466,-60
0.2933,-0.332525,1,466.5,-60
0.2934,-0.341818,1,467,-60
0.2935,-0.328889,1,467.5,-60
0.2936,-0.358384,1,468,-60
0.2937,-0.371313,1,468.5,-60
0.2938,-0.367677,1,469,-60
0.2939,-0.360808,1,469.5,-60
0.294,-0.36404,1,470,-60
0.2941,-0.369697,1,470.5,-60
0.2942,-0.365657,1,471,-60
0.2943,-0.358384,1,471.5,-60
0.2944,-0.363636,1,472,-60
0.2945,-0.36404,1,472.5,-60
0.2946,-0.363636,1,473,-60
0.2947,-0.363232,1,473.5,-60
0.2948,-0.363232,1,474,-60
0.2949,-0.366465,1,474.5,-56.1436
0.295,-0.397172,1,475,-60
0.2951,-0.377778,1,475.5,-60
0.2952,-0.365657,1,476,-60
0.2953,-0.363636,1,476.5,-60
0.2954,-0.363636,1,477,-60
0.2955,-0.388687,1,477.5,-60
0.2956,-0.406465,1,478,-60
0.2957,-0.410505,1,478.5,-60
0.2958,-0.44404,1,479,-60
0.2959,-0.449293,1,479.5,-60
0.296,-0.447273,1,480,-60
0.2961,-0.446465,1,480.5,-60
0.2962,-0.432323,1,481,-60
0.2963,-0.440404,1,481.5,-60
0.2964,-0.406465,1,482,-60
0.2965,-0.405657,1,482.5,-60
0.2966,-0.431111,1,483,-60
0.2967,-0.431515,1,483.5,-60
0.2968,-0.41697,1,484,-57.6507
0.2969,-0.40404,1,484.5,-57.5969
0.297,-0.377374,1,485,-60
0.2971,-0.363232,1,485.5,-60
0.2972,-0.366869,1,486,-60
0.2973,-0.368889,1,486.5,-60
0.2974,-0.366061,1,487,-60
0.2975,-0.367273,1,487.5,-60
0.2976,-0.386263,1,488,-60
0.2977,-0.396768,1,488.5,-60
0.2978,-0.391111,1,489,-60
0.2979,-0.393535,1,489.5,-60
0.298,-0.38303,1,490,-60
0.2981,-0.386667,1,490.5,-60
0.2982,-0.410909,1,491,-60
0.2983,-0.439596,1,491.5,-60
0.2984,-0.444444,1,492,-60
0.2985,-0.439192,1,492.5,-60
0.2986,-0.414545,1,493,-60
0.2987,-0.426263,1,493.5,-60
0.2988,-0.43798,1,494,-57.1282
0.2989,-0.39596,1,494.5,-60
0.299,-0.361212,1,495,-60
0.2991,-0.360404,1,495.5,-60
0.2992,-0.371313,1,496,-60
0.2993,-0.372121,1,496.5,-60
0.2994,-0.363636,1,497,-60
0.2995,-0.363636,1,497.5,-60
0.2996,-0.331717,1,498,-60
0.2997,-0.28404,1,498.5,-60
0.2998,-0.279192,1,499,-60
0.2999,-0.254949,1,499.5,-60
0.3,-0.224242,1,500,-60
0.3001,-0.212929,1,500.5,-60
0.3002,-0.229091,1,501,-60
0.3003,-0.227475,1,501.5,-60
0.3004,-0.253737,1,502,-60
0.3005,-0.281212,1,502.5,-60
0.3006,-0.302222,1,503,-60
0.3007,-0.325253,1,503.5,-58.6934
0.3008,-0.36,1,504,-59.7155
0.3009,-0.402828,1,504.5,-60
0.301,-0.412121,1,505,-60
0.3011,-0.445657,1,505.5,-60
0.3012,-0.452121,1,506,-60
0.3013,-0.450909,1,506.5,-60
0.3014,-0.491717,1,507,-60
0.3015,-0.482828,1,507.5,-60
0.3016,-0.486061,1,508,-60
0.3017,-0.495354,1,508.5,-60
0.3018,-0.460202,1,509,-60
0.3019,-0.48,1,509.5,-60
0.302,-0.478788,1,510,-60
0.3021,-0.473131,1,510.5,-60
0.3022,-0.459394,1,511,-60
0.3023,-0.447273,1,511.5,-60
0.3024,-0.417778,1,512,-60
0.3025,-0.370909,1,512.5,-60
0.3026,-0.332929,1,513,-59.7155
0.3027,-0.313939,1,513.5,-56.2928
0.3028,-0.288485,1,514,-60
0.3029,-0.255354,1,514.5,-60
0.303,-0.228283,1,515,-60
0.3031,-0.208081,1,515.5,-60
0.3032,-0.199596,1,516,-60
0.3033,-0.20202,1,516.5,-60
0.3034,-0.203636,1,517,-60
0.3035,-0.221414,1,517.5,-60
0.3036,-0.232727,1,518,-60
0.3037,-0.236364,1,518.5,-60
0.3038,-0.236768,1,519,-60
0.3039,-0.236364,1,519.5,-60
0.304,-0.230707,1,520,-60
0.3041,-0.237172,1,520.5,-60
0.3042,-0.255758,1,521,-60
0.3043,-0.248889,1,521.5,-60
0.3044,-0.249293,1,522,-60
0.3045,-0.250909,1,522.5,-60
0.3046,-0.25899,1,523,-57.1426
0.3047,-0.270707,1,523.5,-58.4954
0.3048,-0.266667,1,524,-60
0.3049,-0.259394,1,524.5,-60
0.305,-0.245657,1,525,-60
0.3051,-0.24,1,525.5,-60
0.3052,-0.212929,1,526,-60
0.3053,-0.230303,1,526.5,-60
0.3054,-0.212525,1,527,-60
0.3055,-0.203232,1,527.5,-60
0.3056,-0.203232,1,528,-60
0.3057,-0.200404,1,528.5,-60
0.3058,-0.20202,1,529,-60
0.3059,-0.198788,1,529.5,-60
0.306,-0.194747,1,530,-60
0.3061,-0.20202,1,530.5,-60
0.3062,-0.215354,1,531,-60
0.3063,-0.215758,1,531.5,-60
0.3064,-0.210909,1,532,-60
0.3065,-0.235152,1,532.5,-60
0.3066,-0.249293,1,533,-58.2556
0.3067,-0.282424,1,533.5,-60
0.3068,-0.283232,1,534,-60
0.3069,-0.298586,1,534.5,-60
0.307,-0.313535,1,535,-60
0.3071,-0.327273,1,535.5,-60
0.3072,-0.318384,1,536,-60
0.3073,-0.286869,1,536.5,-60
0.3074,-0.284444,1,537,-60
0.3075,-0.283636,1,537.5,-60
0.3076,-0.287273,1,538,-60
0.3077,-0.567677,1,538.5,-60
0.3078,-0.897374,1,539,-60
0.3079,-1.07758,1,539.5,-60
0.308,-1.1802,1,540,-60
0.3081,-1.25212,1,540.5,-60
0.3082,-1.25333,1,541,-60
0.3083,-1.25253,1,541.5,-60
0.3084,-1.24646,1,542,-60
0.3085,-1.23556,1,542.5,-60
0.3086,-1.22747,1,543,-57.6369
0.3087,-1.20687,1,543.5,-60
0.3088,-1.17859,1,544,-60
0.3089,-1.16929,1,544.5,-60
0.309,-1.11111,1,545,-60
0.3091,-1.09091,1,545.5,-60
0.3092,-1.06222,1,546,-60
0.3093,-1.0198,1,546.5,-60
0.3094,-0.986667,1,547,-60
0.3095,-0.944646,1,547.5,-60
0.3096,-0.913939,1,548,-60
0.3097,-0.857778,1,548.5,-60
0.3098,-0.782626,1,549,-60
0.3099,-0.730909,1,549.5,-60
0.31,-0.358384,1,550,-60
0.3101,-0.0577778,1,550.5,-60
0.3102,0.122828,1,551,-60
0.3103,0.253333,1,551.5,-60
0.3104,0.307475,1,552,-60
0.3105,0.334545,1,552.5,-58.2399
0.3106,0.345051,1,553,-60
0.3107,0.316364,1,553.5,-60
0.3108,0.283232,1,554,-60
0.3109,0.282828,1,554.5,-60
0.311,0.25697,1,555,-60
0.3111,0.218586,1,555.5,-60
0.3112,0.184242,1,556,-60
0.3113,0.126465,1,556.5,-60
0.3114,0.111111,1,557,-60
0.3115,0.0743434,1,557.5,-60
0.3116,0.0448485,1,558,-60
0.3117,0.0383838,1,558.5,-60
0.3118,0.0206061,1,559,-60
0.3119,-0.0250505,1,559.5,-60
0.312,-0.0525253,1,560,-60
0.3121,-0.079596,1,560.5,-60
0.3122,-0.0751515,1,561,-60
0.3123,-0.0723232,1,561.5,-60
0.3124,-0.0763636,1,562,-60
0.3125,-0.11596,1,562.5,-57.93
0.3126,-0.155152,1,563,-60
0.3127,-0.197172,1,563.5,-60
0.3128,-0.211717,1,564,-60
0.3129,-0.217778,1,564.5,-60
0.313,-0.209697,1,565,-60
0.3131,-0.234747,1,565.5,-60
0.3132,-0.222626,1,566,-60
0.3133,-0.22101,1,566.5,-60
0.3134,-0.204848,1,567,-60
0.3135,-0.241212,1,567.5,-60
0.3136,-0.272727,1,568,-60
0.3137,-0.281616,1,568.5,-60
0.3138,-0.282828,1,569,-60
0.3139,-0.282828,1,569.5,-60
0.314,-0.284848,1,570,-60
0.3141,-0.322424,1,570.5,-60
0.3142,-0.333737,1,571,-60
0.3143,-0.35596,1,571.5,-60
0.3144,-0.36404,1,572,-59.8039
0.3145,-0.366869,1,572.5,-60
0.3146,-0.377374,1,573,-60
0.3147,-0.36404,1,573.5,-60
0.3148,-0.382626,1,574,-60
0.3149,-0.382222,1,574.5,-60
0.315,-0.368081,1,575,-60
0.3151,-0.386667,1,575.5,-60
0.3152,-0.364848,1,576,-60
0.3153,-0.363232,1,576.5,-60
0.3154,-0.349495,1,577,-60
0.3155,-0.36,1,577.5,-60
0.3156,-0.331717,1,578,-60
0.3157,-0.323232,1,578.5,-60
0.3158,-0.313131,1,579,-60
0.3159,-0.30303,1,579.5,-60
0.316,-0.307879,1,580,-60
0.3161,-0.286061,1,580.5,-60
0.3162,-0.282424,1,581,-60
0.3163,-0.28404,1,581.5,-60
0.3164,-0.266667,1,582,-60
0.3165,-0.274343,1,582.5,-60
0.3166,-0.279596,1,583,-60
0.3167,-0.282828,1,583.5,-60
0.3168,-0.262626,1,584,-60
0.3169,-0.243232,1,584.5,-60
0.317,-0.243636,1,585,-60
0.3171,-0.241212,1,585.5,-60
0.3172,-0.232727,1,586,-60
0.3173,-0.233939,1,586.5,-60
0.3174,-0.20404,1,587,-60
0.3175,-0.211313,1,587.5,-60
0.3176,-0.234343,1,588,-60
0.3177,-0.205657,1,588.5,-60
0.3178,-0.200808,1,589,-60
0.3179,-0.20202,1,589.5,-60
0.318,-0.211313,1,590,-60
0.3181,-0.249293,1,590.5,-60
0.3182,-0.270707,1,591,-60
0.3183,-0.293333,1,591.5,-58.9132
0.3184,-0.335758,1,592,-59.0733
0.3185,-0.365253,1,592.5,-60
0.3186,-0.38101,1,593,-60
0.3187,-0.405253,1,593.5,-60
0.3188,-0.427879,1,594,-60
0.3189,-0.444444,1,594.5,-60
0.319,-0.422222,1,595,-60
0.3191,-0.403232,1,595.5,-60
0.3192,-0.408889,1,596,-60
0.3193,-0.403232,1,596.5,-60
0.3194,-0.399596,1,597,-60
0.3195,-0.370505,1,597.5,-60
0.3196,-0.362424,1,598,-60
0.3197,-0.331717,1,598.5,-60
0.3198,-0.313535,1,599,-60
0.3199,-0.303838,1,599.5,-60
0.32,-0.491313,1,600,-60
0.3201,-0.840404,1,600.5,-60
0.3202,-1.04364,1,601,-60
0.3203,-1.17374,1,601.5,-58.3581
0.3204,-1.23838,1,602,-60
0.3205,-1.26505,1,602.5,-60
0.3206,-1.28162,1,603,-60
0.3207,-1.30222,1,603.5,-60
0.3208,-1.3297,1,604,-60
0.3209,-1.30586,1,604.5,-60
0.321,-1.2796,1,605,-60
0.3211,-1.25172,1,605.5,-60
0.3212,-1.22222,1,606,-60
0.3213,-1.17616,1,606.5,-60
0.3214,-1.12323,1,607,-60
0.3215,-1.07232,1,607.5,-60
0.3216,-1.03152,1,608,-60
0.3217,-0.996364,1,608.5,-60
0.3218,-0.926061,1,609,-60
0.3219,-0.870303,1,609.5,-60
0.322,-0.798384,1,610,-60
0.3221,-0.764848,1,610.5,-60
0.3222,-0.627475,1,611,-60
0.3223,-0.26303,1,611.5,-60
0.3224,-0.328889,1,612,-60
0.3225,-0.42303,1,612.5,-60
0.3226,-0.483232,1,613,-60
0.3227,-0.520808,1,613.5,-60
0.3228,-0.526061,1,614,-60
0.3229,-0.525253,1,614.5,-60
0.323,-0.525253,1,615,-60
0.3231,-0.525253,1,615.5,-60
0.3232,-0.526869,1,616,-60
0.3233,-0.524848,1,616.5,-60
0.3234,-0.511919,1,617,-60
0.3235,-0.482828,1,617.5,-60
0.3236,-0.477172,1,618,-60
0.3237,-0.48202,1,618.5,-60
0.3238,-0.466667,1,619,-60
0.3239,-0.467879,1,619.5,-60
0.324,-0.456162,1,620,-60
0.3241,-0.430303,1,620.5,-60
0.3242,-0.437576,1,621,-57.4437
0.3243,-0.446061,1,621.5,-60
0.3244,-0.443232,1,622,-60
0.3245,-0.412121,1,622.5,-60
0.3246,-0.126061,1,623,-60
0.3247,-0.0412121,1,623.5,-60
0.3248,-0.219394,1,624,-60
0.3249,-0.337374,1,624.5,-60
0.325,-0.433939,1,625,-60
0.3251,-0.522424,1,625.5,-60
0.3252,-0.525253,1,626,-60
0.3253,-0.516768,1,626.5,-60
0.3254,-0.505455,1,627,-60
0.3255,-0.502222,1,627.5,-60
0.3256,-0.474747,1,628,-60
0.3257,-0.447677,1,628.5,-60
0.3258,-0.452121,1,629,-60
0.3259,-0.443636,1,629.5,-60
0.326,-0.431111,1,630,-60
0.3261,-0.416566,1,630.5,-59.0258
0.3262,-0.412525,1,631,-60
0.3263,-0.400808,1,631.5,-60
0.3264,-0.375758,1,632,-60
0.3265,-0.363636,1,632.5,-60
0.3266,-0.354343,1,633,-60
0.3267,-0.35596,1,633.5,-60
0.3268,-0.36202,1,634,-60
0.3269,-0.261414,1,634.5,-60
0.327,0.0690909,1,635,-60
0.3271,0.276364,1,635.5,-60
0.3272,0.404444,1,636,-60
0.3273,0.407273,1,636.5,-60
0.3274,0.361616,1,637,-60
0.3275,0.29899,1,637.5,-60
0.3276,0.254545,1,638,-60
0.3277,0.198384,1,638.5,-60
0.3278,0.16,1,639,-60
0.3279,0.13697,1,639.5,-60
0.328,0.0989899,1,640,-60
0.3281,0.0812121,1,640.5,-58.4288
0.3282,0.0565657,1,641,-60
0.3283,0.0468687,1,641.5,-60
0.3284,0.0678788,1,642,-60
0.3285,0.0743434,1,642.5,-60
0.3286,0.0690909,1,643,-60
0.3287,0.079596,1,643.5,-60
0.3288,0.11798,1,644,-60
0.3289,0.132525,1,644.5,-60
0.329,0.152727,1,645,-60
0.3291,0.146263,1,645.5,-60
0.3292,0.14303,1,646,-60
0.3293,0.138182,1,646.5,-60
0.3294,0.145859,1,647,-60
0.3295,0.136162,1,647.5,-60
0.3296,0.0929293,1,648,-60
0.3297,0.0444444,1,648.5,-60
0.3298,0.0375758,1,649,-60
0.3299,0.0222222,1,649.5,-60
0.33,0.0141414,1,650,-60
0.3301,0.0121212,1,650.5,-60
0.3302,0.0347475,1,651,-60
0.3303,0.04,1,651.5,-60
0.3304,0.04,1,652,-60
0.3305,0.039596,1,652.5,-60
0.3306,0.040404,1,653,-60
0.3307,0.0460606,1,653.5,-60
0.3308,0.0424242,1,654,-60
0.3309,0.00969697,1,654.5,-60
0.331,-0.0379798,1,655,-60
0.3311,-0.0420202,1,655.5,-60
0.3312,-0.0480808,1,656,-60
0.3313,-0.049697,1,656.5,-60
0.3314,-0.0763636,1,657,-60
0.3315,-0.0808081,1,657.5,-60
0.3316,-0.0812121,1,658,-60
0.3317,-0.109091,1,658.5,-60
0.3318,-0.126061,1,659,-60
0.3319,-0.143434,1,659.5,-60
0.332,-0.137778,1,660,-60
0.3321,-0.14101,1,660.5,-60
0.3322,-0.16202,1,661,-60
0.3323,-0.16404,1,661.5,-60
0.3324,-0.227879,1,662,-60
0.3325,-0.281212,1,662.5,-60
0.3326,-0.320404,1,663,-60
0.3327,-0.353939,1,663.5,-60
0.3328,-0.363636,1,664,-60
0.3329,-0.363232,1,664.5,-60
0.333,-0.375354,1,665,-60
0.3331,-0.387475,1,665.5,-60
0.3332,-0.4,1,666,-60
0.3333,-0.382626,1,666.5,-60
0.3334,-0.366869,1,667,-60
0.3335,-0.399192,1,667.5,-60
0.3336,-0.431515,1,668,-60
0.3337,-0.444444,1,668.5,-60
0.3338,-0.43798,1,669,-60
0.3339,-0.412525,1,669.5,-60
0.334,-0.398788,1,670,-60
0.3341,-0.402828,1,670.5,-60
0.3342,-0.373737,1,671,-60
0.3343,-0.36,1,671.5,-60
0.3344,-0.36202,1,672,-60
0.3345,-0.365253,1,672.5,-60
0.3346,-0.371717,1,673,-60
0.3347,-0.389495,1,673.5,-60
0.3348,-0.381414,1,674,-60
0.3349,-0.353939,1,674.5,-60
0.335,-0.326061,1,675,-60
0.3351,-0.333333,1,675.5,-60
0.3352,-0.307071,1,676,-60
0.3353,-0.309091,1,676.5,-60
0.3354,-0.296566,1,677,-60
0.3355,-0.282828,1,677.5,-60
0.3356,-0.280404,1,678,-60
0.3357,-0.282424,1,678.5,-60
0.3358,-0.308687,1,679,-60
0.3359,-0.323636,1,679.5,-60
0.336,-0.351111,1,680,-60
0.3361,-0.354343,1,680.5,-60
0.3362,-0.313131,1,681,-60
0.3363,-0.276364,1,681.5,-60
0.3364,-0.270707,1,682,-60
0.3365,-0.269091,1,682.5,-60
0.3366,-0.27798,1,683,-60
0.3367,-0.261818,1,683.5,-60
0.3368,-0.280808,1,684,-60
0.3369,-0.283636,1,684.5,-60
0.337,-0.283232,1,685,-60
0.3371,-0.280404,1,685.5,-60
0.3372,-0.276768,1,686,-60
0.3373,-0.282424,1,686.5,-60
0.3374,-0.291717,1,687,-60
0.3375,-0.321212,1,687.5,-60
0.3376,-0.325253,1,688,-60
0.3377,-0.334545,1,688.5,-60
0.3378,-0.32404,1,689,-60
0.3379,-0.31798,1,689.5,-60
0.338,-0.310707,1,690,-60
0.3381,-0.31798,1,690.5,-60
0.3382,-0.300202,1,691,-60
0.3383,-0.290505,1,691.5,-60
0.3384,-0.291717,1,692,-60
0.3385,-0.303434,1,692.5,-60
0.3386,-0.29697,1,693,-60
0.3387,-0.305051,1,693.5,-60
0.3388,-0.303838,1,694,-60
0.3389,-0.306263,1,694.5,-60
0.339,-0.294949,1,695,-60
0.3391,-0.320404,1,695.5,-60
0.3392,-0.339394,1,696,-60
0.3393,-0.344242,1,696.5,-60
0.3394,-0.360808,1,697,-60
0.3395,-0.363636,1,697.5,-60
0.3396,-0.331313,1,698,-60
0.3397,-0.316768,1,698.5,-60
0.3398,-0.294949,1,699,-60
0.3399,-0.290101,1,699.5,-60
0.34,-0.305859,1,700,-60
0.3401,-0.313535,1,700.5,-60
0.3402,-0.347475,1,701,-60
0.3403,-0.363636,1,701.5,-60
0.3404,-0.362828,1,702,-60
0.3405,-0.375758,1,702.5,-60
0.3406,-0.386667,1,703,-60
0.3407,-0.376162,1,703.5,-60
0.3408,-0.366869,1,704,-60
0.3409,-0.367273,1,704.5,-60
0.341,-0.349091,1,705,-60
0.3411,-0.347475,1,705.5,-60
0.3412,-0.357576,1,706,-60
0.3413,-0.361616,1,706.5,-60
0.3414,-0.351515,1,707,-60
0.3415,-0.379394,1,707.5,-60
0.3416,-0.39596,1,708,-60
0.3417,-0.414141,1,708.5,-60
0.3418,-0.406465,1,709,-60
0.3419,-0.409697,1,709.5,-60
0.342,-0.434343,1,710,-60
0.3421,-0.460202,1,710.5,-60
0.3422,-0.447273,1,711,-60
0.3423,-0.436768,1,711.5,-60
0.3424,-0.435152,1,712,-60
0.3425,-0.438384,1,712.5,-60
0.3426,-0.449697,1,713,-60
0.3427,-0.465455,1,713.5,-60
0.3428,-0.462626,1,714,-60
0.3429,-0.457374,1,714.5,-60
0.343,-0.463434,1,715,-60
0.3431,-0.48202,1,715.5,-60
0.3432,-0.453737,1,716,-60
0.3433,-0.426263,1,716.5,-60
0.3434,-0.433131,1,717,-60
0.3435,-0.44202,1,717.5,-60
0.3436,-0.441212,1,718,-60
0.3437,-0.414141,1,718.5,-60
0.3438,-0.410505,1,719,-60
0.3439,-0.427475,1,719.5,-60
0.344,-0.411717,1,720,-60
0.3441,-0.427879,1,720.5,-60
0.3442,-0.459394,1,721,-60
0.3443,-0.452929,1,721.5,-60
0.3444,-0.431111,1,722,-60
0.3445,-0.413333,1,722.5,-60
0.3446,-0.383434,1,723,-60
0.3447,-0.344242,1,723.5,-60
0.3448,-0.316364,1,724,-60
0.3449,-0.302626,1,724.5,-60
0.345,-0.278384,1,725,-60
0.3451,-0.25697,1,725.5,-60
0.3452,-0.235556,1,726,-60
0.3453,-0.203636,1,726.5,-60
0.3454,-0.20202,1,727,-60
0.3455,-0.190707,1,727.5,-60
0.3456,-0.158384,1,728,-60
0.3457,-0.121212,1,728.5,-60
0.3458,-0.118788,1,729,-60
0.3459,-0.0820202,1,729.5,-60
0.346,-0.0585859,1,730,-60
0.3461,-0.04,1,730.5,-60
0.3462,-0.0355556,1,731,-60
0.3463,-0.0371717,1,731.5,-60
0.3464,-0.0408081,1,732,-60
0.3465,-0.04,1,732.5,-60
0.3466,-0.0420202,1,733,-60
0.3467,-0.0428283,1,733.5,-60
0.3468,-0.0812121,1,734,-60
0.3469,-0.118788,1,734.5,-60
0.347,-0.12404,1,735,-60
0.3471,-0.126869,1,735.5,-60
0.3472,-0.169697,1,736,-60
0.3473,-0.220202,1,736.5,-60
0.3474,-0.211717,1,737,-60
0.3475,-0.234343,1,737.5,-60
0.3476,-0.280404,1,738,-60
0.3477,-0.283232,1,738.5,-60
0.3478,-0.310303,1,739,-60
0.3479,-0.320404,1,739.5,-60
0.348,-0.289697,1,740,-60
0.3481,-0.282424,1,740.5,-60
0.3482,-0.284848,1,741,-60
0.3483,-0.317576,1,741.5,-60
0.3484,-0.328081,1,742,-60
0.3485,-0.34303,1,742.5,-60
0.3486,-0.363636,1,743,-60
0.3487,-0.383838,1,743.5,-60
0.3488,-0.424646,1,744,-60
0.3489,-0.492929,1,744.5,-60
0.349,-0.532525,1,745,-60
0.3491,-0.561212,1,745.5,-60
0.3492,-0.593131,1,746,-60
0.3493,-0.611717,1,746.5,-60
0.3494,-0.609697,1,747,-60
0.3495,-0.595556,1,747.5,-60
0.3496,-0.553535,1,748,-60
0.3497,-0.545455,1,748.5,-60
0.3498,-0.526061,1,749,-60
0.3499,-0.505859,1,749.5,-60
0.35,-0.453737,1,750,-60
0.3501,-0.420606,1,750.5,-60
0.3502,-0.40404,1,751,-60
0.3503,-0.378182,1,751.5,-60
0.3504,-0.36202,1,752,-60
0.3505,-0.363636,1,752.5,-60
0.3506,-0.330909,1,753,-60
0.3507,-0.288889,1,753.5,-60
0.3508,-0.287273,1,754,-60
0.3509,-0.283636,1,754.5,-60
0.351,-0.28404,1,755,-60
0.3511,-0.264242,1,755.5,-60
0.3512,-0.261414,1,756,-60
0.3513,-0.252525,1,756.5,-60
0.3514,-0.251717,1,757,-60
0.3515,-0.247273,1,757.5,-60
0.3516,-0.242424,1,758,-60
0.3517,-0.237172,1,758.5,-60
0.3518,-0.262626,1,759,-60
0.3519,-0.271515,1,759.5,-60
0.352,-0.246061,1,760,-60
0.3521,-0.273535,1,760.5,-60
0.3522,-0.282828,1,761,-60
0.3523,-0.282424,1,761.5,-60
0.3524,-0.271515,1,762,-60
0.3525,-0.286869,1,762.5,-60
0.3526,-0.337778,1,763,-60
0.3527,-0.348283,1,763.5,-60
0.3528,-0.325253,1,764,-60
0.3529,-0.353939,1,764.5,-60
0.353,-0.389899,1,765,-60
0.3531,-0.405253,1,765.5,-60
0.3532,-0.405253,1,766,-60
0.3533,-0.404444,1,766.5,-60
0.3534,-0.400404,1,767,-60
0.3535,-0.388283,1,767.5,-60
0.3536,-0.404848,1,768,-60
0.3537,-0.408485,1,768.5,-60
0.3538,-0.438384,1,769,-60
0.3539,-0.458182,1,769.5,-60
0.354,-0.445253,1,770,-60
0.3541,-0.418182,1,770.5,-60
0.3542,-0.401212,1,771,-60
0.3543,-0.403232,1,771.5,-60
0.3544,-0.406465,1,772,-60
0.3545,-0.416566,1,772.5,-60
0.3546,-0.430303,1,773,-60
0.3547,-0.438384,1,773.5,-60
0.3548,-0.459798,1,774,-60
0.3549,-0.460606,1,774.5,-60
0.355,-0.445657,1,775,-60
0.3551,-0.470707,1,775.5,-60
0.3552,-0.49697,1,776,-60
0.3553,-0.509091,1,776.5,-60
0.3554,-0.513131,1,777,-60
0.3555,-0.51798,1,777.5,-60
0.3556,-0.509495,1,778,-60
0.3557,-0.520404,1,778.5,-60
0.3558,-0.516364,1,779,-60
0.3559,-0.505051,1,779.5,-60
0.356,-0.500202,1,780,-60
0.3561,-0.49899,1,780.5,-60
0.3562,-0.463434,1,781,-60
0.3563,-0.435152,1,781.5,-60
0.3564,-0.434343,1,782,-60
0.3565,-0.405253,1,782.5,-60
0.3566,-0.417374,1,783,-60
0.3567,-0.413333,1,783.5,-60
0.3568,-0.419394,1,784,-60
0.3569,-0.406061,1,784.5,-60
0.357,-0.401212,1,785,-60
0.3571,-0.400808,1,785.5,-60
0.3572,-0.39798,1,786,-60
0.3573,-0.376162,1,786.5,-60
0.3574,-0.347071,1,787,-60
0.3575,-0.322424,1,787.5,-60
0.3576,-0.30101,1,788,-60
0.3577,-0.307475,1,788.5,-60
0.3578,-0.299394,1,789,-60
0.3579,-0.279192,1,789.5,-60
0.358,-0.248485,1,790,-60
0.3581,-0.208485,1,790.5,-60
0.3582,-0.203636,1,791,-60
0.3583,-0.199596,1,791.5,-60
0.3584,-0.166869,1,792,-60
0.3585,-0.150303,1,792.5,-60
0.3586,-0.127273,1,793,-60
0.3587,-0.121616,1,793.5,-60
0.3588,-0.120808,1,794,-60
0.3589,-0.118788,1,794.5,-60
0.359,-0.0872727,1,795,-60
0.3591,-0.0618182,1,795.5,-60
0.3592,-0.0412121,1,796,-60
0.3593,-0.04,1,796.5,-60
0.3594,-0.04,1,797,-60
0.3595,-0.0266667,1,797.5,-60
0.3596,-0.040404,1,798,-60
0.3597,-0.0557576,1,798.5,-60
0.3598,-0.0791919,1,799,-60
0.3599,-0.109091,1,799.5,-60
0.36,-0.131717,1,800,-60
0.3601,-0.173737,1,800.5,-60
0.3602,-0.188687,1,801,-60
0.3603,-0.202828,1,801.5,-60
0.3604,-0.231919,1,802,-60
0.3605,-0.259394,1,802.5,-60
0.3606,-0.308283,1,803,-60
0.3607,-0.359596,1,803.5,-60
0.3608,-0.398788,1,804,-60
0.3609,-0.426263,1,804.5,-60
0.361,-0.492929,1,805,-60
0.3611,-0.564444,1,805.5,-60
0.3612,-0.580606,1,806,-60
0.3613,-0.60202,1,806.5,-60
0.3614,-0.599192,1,807,-60
0.3615,-0.579798,1,807.5,-60
0.3616,-0.575354,1,808,-60
0.3617,-0.565657,1,808.5,-60
0.3618,-0.573737,1,809,-60
0.3619,-0.567677,1,809.5,-60
0.362,-0.56202,1,810,-60
0.3621,-0.528081,1,810.5,-60
0.3622,-0.532929,1,811,-60
0.3623,-0.559192,1,811.5,-60
0.3624,-0.568081,1,812,-60
0.3625,-0.567273,1,812.5,-60
0.3626,-0.55798,1,813,-60
0.3627,-0.566061,1,813.5,-60
0.3628,-0.584646,1,814,-60
0.3629,-0.60404,1,814.5,-60
0.363,-0.606061,1,815,-60
0.3631,-0.612525,1,815.5,-60
0.3632,-0.611717,1,816,-60
0.3633,-0.63596,1,816.5,-60
0.3634,-0.617374,1,817,-60
0.3635,-0.589899,1,817.5,-60
0.3636,-0.538586,1,818,-60
0.3637,-0.505455,1,818.5,-60
0.3638,-0.447273,1,819,-60
0.3639,-0.410505,1,819.5,-60
0.364,-0.374545,1,820,-60
0.3641,-0.36202,1,820.5,-60
0.3642,-0.297778,1,821,-60
0.3643,-0.269091,1,821.5,-60
0.3644,-0.206061,1,822,-60
0.3645,-0.175354,1,822.5,-60
0.3646,-0.145455,1,823,-60
0.3647,-0.119596,1,823.5,-60
0.3648,-0.0856566,1,824,-60
0.3649,-0.107879,1,824.5,-60
0.365,-0.122828,1,825,-60
0.3651,-0.130101,1,825.5,-60
0.3652,-0.151515,1,826,-60
0.3653,-0.183838,1,826.5,-60
0.3654,-0.203636,1,827,-60
0.3655,-0.202828,1,827.5,-60
0.3656,-0.196768,1,828,-60
0.3657,-0.197172,1,828.5,-60
0.3658,-0.165657,1,829,-60
0.3659,-0.17697,1,829.5,-60
0.366,-0.188687,1,830,-60
0.3661,-0.14303,1,830.5,-60
0.3662,-0.121212,1,831,-60
0.3663,-0.103838,1,831.5,-60
0.3664,-0.0856566,1,832,-60
0.3665,-0.0747475,1,832.5,-60
0.3666,-0.0626263,1,833,-60
0.3667,-0.0735354,1,833.5,-60
0.3668,-0.0690909,1,834,-60
0.3669,-0.0791919,1,834.5,-60
0.367,-0.0848485,1,835,-60
0.3671,-0.0957576,1,835.5,-60
0.3672,-0.13697,1,836,-60
0.3673,-0.185455,1,836.5,-60
0.3674,-0.201616,1,837,-60
0.3675,-0.210101,1,837.5,-60
0.3676,-0.212121,1,838,-60
0.3677,-0.243232,1,838.5,-60
0.3678,-0.276364,1,839,-60
0.3679,-0.28404,1,839.5,-60
0.368,-0.304242,1,840,-60
0.3681,-0.330909,1,840.5,-60
0.3682,-0.330909,1,841,-60
0.3683,-0.323232,1,841.5,-60
0.3684,-0.352323,1,842,-60
0.3685,-0.363636,1,842.5,-60
0.3686,-0.360808,1,843,-60
0.3687,-0.363232,1,843.5,-60
0.3688,-0.363636,1,844,-60
0.3689,-0.363636,1,844.5,-60
0.369,-0.360808,1,845,-60
0.3691,-0.358384,1,845.5,-60
0.3692,-0.362424,1,846,-60
0.3693,-0.365253,1,846.5,-60
0.3694,-0.398788,1,847,-60
0.3695,-0.407273,1,847.5,-60
0.3696,-0.40404,1,848,-60
0.3697,-0.404444,1,848.5,-60
0.3698,-0.405253,1,849,-60
0.3699,-0.371313,1,849.5,-60
0.37,-0.365253,1,850,-60
0.3701,-0.342222,1,850.5,-60
0.3702,-0.298182,1,851,-60
0.3703,-0.283636,1,851.5,-60
0.3704,-0.275152,1,852,-60
0.3705,-0.244444,1,852.5,-60
0.3706,-0.243636,1,853,-60
0.3707,-0.213333,1,853.5,-60
0.3708,-0.203232,1,854,-60
0.3709,-0.203636,1,854.5,-60
0.371,-0.214545,1,855,-60
0.3711,-0.246869,1,855.5,-60
0.3712,-0.258182,1,856,-60
0.3713,-0.250909,1,856.5,-60
0.3714,-0.272727,1,857,-60
0.3715,-0.271919,1,857.5,-60
0.3716,-0.282828,1,858,-60
0.3717,-0.301818,1,858.5,-60
0.3718,-0.324444,1,859,-60
0.3719,-0.329697,1,859.5,-60
0.372,-0.309899,1,860,-60
0.3721,-0.295354,1,860.5,-60
0.3722,-0.296162,1,861,-60
0.3723,-0.320404,1,861.5,-60
0.3724,-0.311919,1,862,-60
0.3725,-0.327677,1,862.5,-60
0.3726,-0.358384,1,863,-60
0.3727,-0.356364,1,863.5,-60
0.3728,-0.323636,1,864,-60
0.3729,-0.323636,1,864.5,-60
0.373,-0.304242,1,865,-60
0.3731,-0.287677,1,865.5,-60
0.3732,-0.321212,1,866,-60
0.3733,-0.330505,1,866.5,-60
0.3734,-0.320404,1,867,-60
0.3735,-0.348687,1,867.5,-60
0.3736,-0.363636,1,868,-60
0.3737,-0.363636,1,868.5,-60
0.3738,-0.363636,1,869,-60
0.3739,-0.370101,1,869.5,-60
0.374,-0.366061,1,870,-60
0.3741,-0.374545,1,870.5,-60
0.3742,-0.368485,1,871,-60
0.3743,-0.386263,1,871.5,-60
0.3744,-0.381414,1,872,-60
0.3745,-0.405253,1,872.5,-60
0.3746,-0.387475,1,873,-60
0.3747,-0.40202,1,873.5,-60
0.3748,-0.414949,1,874,-60
0.3749,-0.41697,1,874.5,-60
0.375,-0.399596,1,875,-60
0.3751,-0.385051,1,875.5,-60
0.3752,-0.363636,1,876,-60
0.3753,-0.363636,1,876.5,-60
0.3754,-0.363636,1,877,-60
0.3755,-0.363636,1,877.5,-60
0.3756,-0.363636,1,878,-60
0.3757,-0.363636,1,878.5,-60
0.3758,-0.363636,1,879,-60
0.3759,-0.345051,1,879.5,-60
0.376,-0.348687,1,880,-60
0.3761,-0.327273,1,880.5,-60
0.3762,-0.320808,1,881,-60
0.3763,-0.299394,1,881.5,-60
0.3764,-0.280404,1,882,-60
0.3765,-0.260202,1,882.5,-60
0.3766,-0.248889,1,883,-60
0.3767,-0.26303,1,883.5,-60
0.3768,-0.265455,1,884,-60
0.3769,-0.232323,1,884.5,-60
0.377,-0.202424,1,885,-60
0.3771,-0.213737,1,885.5,-60
0.3772,-0.239596,1,886,-60
0.3773,-0.269899,1,886.5,-60
0.3774,-0.29697,1,887,-60
0.3775,-0.342222,1,887.5,-60
0.3776,-0.364848,1,888,-60
0.3777,-0.406869,1,888.5,-60
0.3778,-0.465455,1,889,-60
0.3779,-0.522424,1,889.5,-60
0.378,-0.566061,1,890,-60
0.3781,-0.574545,1,890.5,-60
0.3782,-0.587879,1,891,-60
0.3783,-0.606061,1,891.5,-60
0.3784,-0.606061,1,892,-60
0.3785,-0.597172,1,892.5,-60
0.3786,-0.587475,1,893,-60
0.3787,-0.576162,1,893.5,-60
0.3788,-0.584646,1,894,-60
0.3789,-0.58303,1,894.5,-60
0.379,-0.57697,1,895,-60
0.3791,-0.565657,1,895.5,-60
0.3792,-0.564444,1,896,-60
0.3793,-0.558384,1,896.5,-60
0.3794,-0.561212,1,897,-60
0.3795,-0.604444,1,897.5,-60
0.3796,-0.681212,1,898,-60
0.3797,-0.698586,1,898.5,-60
0.3798,-0.718788,1,899,-60
0.3799,-0.701414,1,899.5,-60
0.38,-0.680808,1,900,-60
0.3801,-0.646869,1,900.5,-60
0.3802,-0.616566,1,901,-60
0.3803,-0.593939,1,901.5,-60
0.3804,-0.560808,1,902,-60
0.3805,-0.52202,1,902.5,-60
0.3806,-0.508687,1,903,-60
0.3807,-0.480404,1,903.5,-60
0.3808,-0.468283,1,904,-59.6928
0.3809,-0.427475,1,904.5,-60
0.381,-0.314343,1,905,-60
0.3811,-0.211313,1,905.5,-60
0.3812,-0.144646,1,906,-60
0.3813,-0.12404,1,906.5,-60
0.3814,-0.0905051,1,907,-60
0.3815,-0.0662626,1,907.5,-60
0.3816,-0.0351515,1,908,-60
0.3817,-0.04,1,908.5,-60
0.3818,-0.0460606,1,909,-60
0.3819,-0.0779798,1,909.5,-60
0.382,-0.12,1,910,-60
0.3821,-0.163636,1,910.5,-60
0.3822,-0.201616,1,911,-60
0.3823,-0.237172,1,911.5,-60
0.3824,-0.266263,1,912,-60
0.3825,-0.30303,1,912.5,-60
0.3826,-0.357172,1,913,-60
0.3827,-0.363636,1,913.5,-60
0.3828,-0.366061,1,914,-60
0.3829,-0.362424,1,914.5,-60
0.383,-0.356768,1,915,-60
0.3831,-0.355152,1,915.5,-60
0.3832,-0.332929,1,916,-60
0.3833,-0.315152,1,916.5,-60
0.3834,-0.288081,1,917,-60
0.3835,-0.282828,1,917.5,-60
0.3836,-0.271515,1,918,-60
0.3837,-0.282828,1,918.5,-60
0.3838,-0.298182,1,919,-60
0.3839,-0.33697,1,919.5,-60
0.384,-0.368485,1,920,-60
0.3841,-0.39596,1,920.5,-60
0.3842,-0.409697,1,921,-60
0.3843,-0.430707,1,921.5,-60
0.3844,-0.444444,1,922,-60
0.3845,-0.443636,1,922.5,-60
0.3846,-0.443636,1,923,-60
0.3847,-0.433939,1,923.5,-60
0.3848,-0.412525,1,924,-60
0.3849,-0.413737,1,924.5,-60
0.385,-0.395556,1,925,-60
0.3851,-0.364444,1,925.5,-60
0.3852,-0.369293,1,926,-60
0.3853,-0.384646,1,926.5,-60
0.3854,-0.363636,1,927,-60
0.3855,-0.363636,1,927.5,-60
0.3856,-0.361616,1,928,-60
0.3857,-0.351515,1,928.5,-60
0.3858,-0.336566,1,929,-60
0.3859,-0.31596,1,929.5,-60
0.386,-0.320404,1,930,-60
0.3861,-0.312323,1,930.5,-60
0.3862,-0.307475,1,931,-60
0.3863,-0.28404,1,931.5,-60
0.3864,-0.282828,1,932,-60
0.3865,-0.254545,1,932.5,-60
0.3866,-0.239192,1,933,-60
0.3867,-0.230303,1,933.5,-60
0.3868,-0.210909,1,934,-60
0.3869,-0.194343,1,934.5,-60
0.387,-0.196768,1,935,-60
0.3871,-0.199192,1,935.5,-60
0.3872,-0.190303,1,936,-60
0.3873,-0.181818,1,936.5,-60
0.3874,-0.194747,1,937,-60
0.3875,-0.204848,1,937.5,-60
0.3876,-0.20202,1,938,-60
0.3877,-0.206465,1,938.5,-60
0.3878,-0.240808,1,939,-60
0.3879,-0.25899,1,939.5,-60
0.388,-0.28,1,940,-60
0.3881,-0.282828,1,940.5,-60
0.3882,-0.283232,1,941,-60
0.3883,-0.347879,1,941.5,-60
0.3884,-0.454545,1,942,-60
0.3885,-0.517172,1,942.5,-60
0.3886,-0.534141,1,943,-60
0.3887,-0.562828,1,943.5,-60
0.3888,-0.561212,1,944,-60
0.3889,-0.567677,1,944.5,-60
0.389,-0.575354,1,945,-60
0.3891,-0.594343,1,945.5,-60
0.3892,-0.585859,1,946,-60
0.3893,-0.598384,1,946.5,-60
0.3894,-0.603636,1,947,-60
0.3895,-0.607677,1,947.5,-60
0.3896,-0.596364,1,948,-60
0.3897,-0.604848,1,948.5,-60
0.3898,-0.612121,1,949,-60
0.3899,-0.608485,1,949.5,-60
0.39,-0.609293,1,950,-60
0.3901,-0.607273,1,950.5,-60
0.3902,-0.611717,1,951,-60
0.3903,-0.63596,1,951.5,-60
0.3904,-0.635152,1,952,-60
0.3905,-0.627879,1,952.5,-60
0.3906,-0.613333,1,953,-59.6534
0.3907,-0.593131,1,953.5,-60
0.3908,-0.562828,1,954,-60
0.3909,-0.442828,1,954.5,-60
0.391,-0.321212,1,955,-60
0.3911,-0.238384,1,955.5,-60
0.3912,-0.205657,1,956,-60
0.3913,-0.187879,1,956.5,-60
0.3914,-0.168889,1,957,-60
0.3915,-0.173333,1,957.5,-60
0.3916,-0.189899,1,958,-60
0.3917,-0.189091,1,958.5,-60
0.3918,-0.203636,1,959,-60
0.3919,-0.238788,1,959.5,-60
0.392,-0.250909,1,960,-60
0.3921,-0.270707,1,960.5,-60
0.3922,-0.28202,1,961,-60
0.3923,-0.287677,1,961.5,-60
0.3924,-0.321212,1,962,-60
0.3925,-0.333333,1,962.5,-60
0.3926,-0.345859,1,963,-60
0.3927,-0.362828,1,963.5,-60
0.3928,-0.362424,1,964,-60
0.3929,-0.359192,1,964.5,-60
0.393,-0.36404,1,965,-60
0.3931,-0.370101,1,965.5,-60
0.3932,-0.399192,1,966,-60
0.3933,-0.391919,1,966.5,-60
0.3934,-0.425455,1,967,-60
0.3935,-0.465051,1,967.5,-60
0.3936,-0.479596,1,968,-60
0.3937,-0.476768,1,968.5,-60
0.3938,-0.47798,1,969,-60
0.3939,-0.456566,1,969.5,-60
0.394,-0.466263,1,970,-60
0.3941,-0.452121,1,970.5,-60
0.3942,-0.451313,1,971,-60
0.3943,-0.444848,1,971.5,-60
0.3944,-0.442828,1,972,-60
0.3945,-0.444444,1,972.5,-60
0.3946,-0.453333,1,973,-60
0.3947,-0.430303,1,973.5,-60
0.3948,-0.403232,1,974,-60
0.3949,-0.374949,1,974.5,-60
0.395,-0.380202,1,975,-60
0.3951,-0.383838,1,975.5,-60
0.3952,-0.364444,1,976,-60
0.3953,-0.368485,1,976.5,-60
0.3954,-0.367677,1,977,-60
0.3955,-0.388687,1,977.5,-60
0.3956,-0.38303,1,978,-60
0.3957,-0.366869,1,978.5,-60
0.3958,-0.36404,1,979,-60
0.3959,-0.365657,1,979.5,-60
0.396,-0.373737,1,980,-60
0.3961,-0.370909,1,980.5,-60
0.3962,-0.366061,1,981,-60
0.3963,-0.363636,1,981.5,-60
0.3964,-0.357576,1,982,-60
0.3965,-0.328081,1,982.5,-60
0.3966,-0.318384,1,983,-60
0.3967,-0.288081,1,983.5,-60
0.3968,-0.280808,1,984,-60
0.3969,-0.269495,1,984.5,-60
0.397,-0.242828,1,985,-60
0.3971,-0.233131,1,985.5,-60
0.3972,-0.24,1,986,-60
0.3973,-0.254545,1,986.5,-60
0.3974,-0.248081,1,987,-60
0.3975,-0.259394,1,987.5,-60
0.3976,-0.282828,1,988,-60
0.3977,-0.282424,1,988.5,-60
0.3978,-0.296162,1,989,-60
0.3979,-0.321616,1,989.5,-60
0.398,-0.322828,1,990,-60
0.3981,-0.352323,1,990.5,-60
0.3982,-0.351111,1,991,-60
0.3983,-0.36202,1,991.5,-60
0.3984,-0.404848,1,992,-60
0.3985,-0.465051,1,992.5,-60
0.3986,-0.520404,1,993,-60
0.3987,-0.51596,1,993.5,-60
0.3988,-0.502626,1,994,-60
0.3989,-0.485657,1,994.5,-60
0.399,-0.47596,1,995,-60
0.3991,-0.434747,1,995.5,-60
0.3992,-0.382222,1,996,-60
0.3993,-0.363636,1,996.5,-60
0.3994,-0.361212,1,997,-60
0.3995,-0.358788,1,997.5,-60
0.3996,-0.332525,1,998,-60
0.3997,-0.280404,1,998.5,-60
0.3998,-0.242424,1,999,-60
0.3999,-0.201616,1,999.5,-60
0.4,-0.20202,2,000,-60
0.4001,-0.195556,2,000.5,-60
0.4002,-0.159192,2,001,-60
0.4003,-0.160808,2,001.5,-60
0.4004,-0.162424,2,002,-60
0.4005,-0.142626,2,002.5,-60
0.4006,-0.160808,2,003,-60
0.4007,-0.162828,2,003.5,-60
0.4008,-0.133333,2,004,-60
0.4009,-0.163636,2,004.5,-60
0.401,-0.178182,2,005,-60
0.4011,-0.188283,2,005.5,-60
0.4012,-0.201212,2,006,-60
0.4013,-0.188283,2,006.5,-60
0.4014,-0.201212,2,007,-60
0.4015,-0.20202,2,007.5,-60
0.4016,-0.24,2,008,-60
0.4017,-0.282424,2,008.5,-60
0.4018,-0.290505,2,009,-60
0.4019,-0.315152,2,009.5,-60
0.402,-0.359192,2,010,-60
0.4021,-0.330101,2,010.5,-60
0.4022,-0.347475,2,011,-60
0.4023,-0.353939,2,011.5,-58.3459
0.4024,-0.34303,2,012,-60
0.4025,-0.36,2,012.5,-60
0.4026,-0.344646,2,013,-60
0.4027,-0.327273,2,013.5,-60
0.4028,-0.348283,2,014,-60
0.4029,-0.343434,2,014.5,-60
0.403,-0.343838,2,015,-60
0.4031,-0.359192,2,015.5,-60
0.4032,-0.351515,2,016,-60
0.4033,-0.325253,2,016.5,-60
0.4034,-0.362828,2,017,-60
0.4035,-0.363636,2,017.5,-60
0.4036,-0.36404,2,018,-60
0.4037,-0.363636,2,018.5,-60
0.4038,-0.362828,2,019,-60
0.4039,-0.363636,2,019.5,-60
0.404,-0.345859,2,020,-60
0.4041,-0.324444,2,020.5,-60
0.4042,-0.352727,2,021,-60
0.4043,-0.351919,2,021.5,-60
0.4044,-0.358788,2,022,-60
0.4045,-0.348283,2,022.5,-60
0.4046,-0.318788,2,023,-60
0.4047,-0.312323,2,023.5,-60
0.4048,-0.299798,2,024,-60
0.4049,-0.289697,2,024.5,-60
0.405,-0.310707,2,025,-60
0.4051,-0.316364,2,025.5,-60
0.4052,-0.313535,2,026,-60
0.4053,-0.331313,2,026.5,-60
0.4054,-0.350707,2,027,-60
0.4055,-0.363636,2,027.5,-60
0.4056,-0.366061,2,028,-60
0.4057,-0.390303,2,028.5,-60
0.4058,-0.387475,2,029,-60
0.4059,-0.396768,2,029.5,-60
0.406,-0.40404,2,030,-60
0.4061,-0.433131,2,030.5,-60
0.4062,-0.441616,2,031,-60
0.4063,-0.464646,2,031.5,-60
0.4064,-0.471515,2,032,-60
0.4065,-0.499394,2,032.5,-60
0.4066,-0.518384,2,033,-60
0.4067,-0.525657,2,033.5,-60
0.4068,-0.548687,2,034,-60
0.4069,-0.555556,2,034.5,-60
0.407,-0.580202,2,035,-60
0.4071,-0.597576,2,035.5,-60
0.4072,-0.606061,2,036,-60
0.4073,-0.598788,2,036.5,-60
0.4074,-0.605657,2,037,-60
0.4075,-0.587475,2,037.5,-60
0.4076,-0.534141,2,038,-60
0.4077,-0.53899,2,038.5,-60
0.4078,-0.530505,2,039,-60
0.4079,-0.513939,2,039.5,-60
0.408,-0.463434,2,040,-60
0.4081,-0.441212,2,040.5,-60
0.4082,-0.403232,2,041,-60
0.4083,-0.368485,2,041.5,-60
0.4084,-0.360404,2,042,-60
0.4085,-0.347071,2,042.5,-60
0.4086,-0.336162,2,043,-60
0.4087,-0.312323,2,043.5,-60
0.4088,-0.313535,2,044,-60
0.4089,-0.269091,2,044.5,-60
0.409,-0.214141,2,045,-60
0.4091,-0.203232,2,045.5,-60
0.4092,-0.166061,2,046,-60
0.4093,-0.147071,2,046.5,-60
0.4094,-0.136162,2,047,-60
0.4095,-0.126465,2,047.5,-60
0.4096,-0.112727,2,048,-60
0.4097,-0.0783838,2,048.5,-60
0.4098,-0.0666667,2,049,-60
0.4099,-0.0812121,2,049.5,-60
0.41,-0.08,2,050,-60
0.4101,-0.331717,2,050.5,-60
0.4102,-0.683636,2,051,-60
0.4103,-0.875152,2,051.5,-60
0.4104,-0.978182,2,052,-60
0.4105,-1.0501,2,052.5,-60
0.4106,-1.09939,2,053,-60
0.4107,-1.11192,2,053.5,-60
0.4108,-1.08808,2,054,-60
0.4109,-1.05333,2,054.5,-60
0.411,-1.05051,2,055,-60
0.4111,-1.02747,2,055.5,-60
0.4112,-1.00606,2,056,-60
0.4113,-0.967677,2,056.5,-60
0.4114,-0.927677,2,057,-60
0.4115,-0.893333,2,057.5,-60
0.4116,-0.845253,2,058,-60
0.4117,-0.775354,2,058.5,-60
0.4118,-0.724444,2,059,-60
0.4119,-0.690101,2,059.5,-60
0.412,-0.681616,2,060,-60
0.4121,-0.650101,2,060.5,-60
0.4122,-0.612121,2,061,-60
0.4123,-0.592323,2,061.5,-60
0.4124,-0.257778,2,062,-60
0.4125,0.0589899,2,062.5,-60
0.4126,0.232323,2,063,-60
0.4127,0.324848,2,063.5,-60
0.4128,0.379798,2,064,-60
0.4129,0.406061,2,064.5,-60
0.413,0.403232,2,065,-60
0.4131,0.364444,2,065.5,-60
0.4132,0.319192,2,066,-60
0.4133,0.283636,2,066.5,-60
0.4134,0.263838,2,067,-60
0.4135,0.198384,2,067.5,-60
0.4136,0.143434,2,068,-60
0.4137,0.113131,2,068.5,-60
0.4138,0.0670707,2,069,-60
0.4139,0.0391919,2,069.5,-60
0.414,0.0230303,2,070,-60
0.4141,-0.0165657,2,070.5,-60
0.4142,-0.0731313,2,071,-60
0.4143,-0.134545,2,071.5,-60
0.4144,-0.201616,2,072,-60
0.4145,-0.239192,2,072.5,-60
0.4146,-0.276768,2,073,-60
0.4147,-0.283232,2,073.5,-60
0.4148,-0.292929,2,074,-60
0.4149,-0.306667,2,074.5,-60
0.415,-0.313535,2,075,-60
0.4151,-0.32202,2,075.5,-60
0.4152,-0.315152,2,076,-60
0.4153,-0.313939,2,076.5,-60
0.4154,-0.311515,2,077,-60
0.4155,-0.293333,2,077.5,-60
0.4156,-0.280404,2,078,-60
0.4157,-0.248485,2,078.5,-60
0.4158,-0.255354,2,079,-60
0.4159,-0.281212,2,079.5,-60
0.416,-0.259394,2,080,-60
0.4161,-0.226263,2,080.5,-60
0.4162,-0.200808,2,081,-60
0.4163,-0.172929,2,081.5,-60
0.4164,-0.201616,2,082,-60
0.4165,-0.17899,2,082.5,-60
0.4166,-0.156768,2,083,-60
0.4167,-0.193535,2,083.5,-60
0.4168,-0.203232,2,084,-60
0.4169,-0.199192,2,084.5,-60
0.417,-0.177374,2,085,-60
0.4171,-0.160404,2,085.5,-60
0.4172,-0.16,2,086,-60
0.4173,-0.194747,2,086.5,-60
0.4174,-0.208081,2,087,-60
0.4175,-0.203232,2,087.5,-60
0.4176,-0.209293,2,088,-60
0.4177,-0.202828,2,088.5,-60
0.4178,-0.232727,2,089,-60
0.4179,-0.223434,2,089.5,-60
0.418,-0.213333,2,090,-60
0.4181,-0.204444,2,090.5,-60
0.4182,-0.216566,2,091,-60
0.4183,-0.234343,2,091.5,-60
0.4184,-0.208889,2,092,-60
0.4185,-0.211313,2,092.5,-60
0.4186,-0.206869,2,093,-60
