"t / s","CH1 / V","CH2 / V","f / Hz","SP1 / dB"
0,-0.316364,0.103434,0,-60
0.0001,-0.321212,0.107071,0.5,-60
0.0002,-0.32202,0.105859,1,-53.0378
0.0003,-0.292929,0.105859,1.5,-49.4322
0.0004,-0.309091,0.107879,2,-48.6256
0.0005,-0.324444,0.107071,2.5,-47.2396
0.0006,-0.338586,0.105455,3,-46.5008
0.0007,-0.367273,0.107879,3.5,-47.1405
0.0008,-0.395556,0.109091,4,-47.3156
0.0009,-0.434343,0.104242,4.5,-48.7102
0.001,-0.433939,0.104242,5,-46.7865
0.0011,-0.44404,0.104242,5.5,-42.5529
0.0012,-0.441616,0.105051,6,-40.5412
0.0013,-0.43798,0.107475,6.5,-40.0321
0.0014,-0.439192,0.108283,7,-40.5386
0.0015,-0.437172,0.108283,7.5,-42.8157
0.0016,-0.434747,0.107071,8,-52.2276
0.0017,-0.44202,0.105455,8.5,-47.5258
0.0018,-0.407273,0.102222,9,-39.4729
0.0019,-0.397576,0.105051,9.5,-33.8506
0.002,-0.37899,0.107475,10,-30.802
0.0021,-0.379394,0.103434,10.5,-29.4694
0.0022,-0.379394,0.105051,11,-28.0524
0.0023,-0.382222,0.107879,11.5,-27.0406
0.0024,-0.387071,0.106263,12,-26.4073
0.0025,-0.380202,0.111515,12.5,-26.2262
0.0026,-0.36404,0.103838,13,-26.7181
0.0027,-0.363232,0.103838,13.5,-27.9045
0.0028,-0.362828,0.106667,14,-29.351
0.0029,-0.363232,0.102626,14.5,-30.6424
0.003,-0.364848,0.108283,15,-31.498
0.0031,-0.363232,0.0989899,15.5,-31.739
0.0032,-0.363636,0.104242,16,-31.2136
0.0033,-0.352727,0.107879,16.5,-29.9096
0.0034,-0.347071,0.0993939,17,-28.1185
0.0035,-0.328081,0.103434,17.5,-26.8588
0.0036,-0.298182,0.102222,18,-26.4171
0.0037,-0.283232,0.100606,18.5,-26.3595
0.0038,-0.277576,0.100606,19,-26.7006
0.0039,-0.255758,0.0993939,19.5,-27.1791
0.004,-0.218586,0.102626,20,-27.6626
0.0041,-0.213333,0.103434,20.5,-28.1338
0.0042,-0.237576,0.0985859,21,-27.927
0.0043,-0.245657,0.104242,21.5,-27.2974
0.0044,-0.240404,0.107879,22,-27.2046
0.0045,-0.254949,0.108687,22.5,-27.259
0.0046,-0.282424,0.105859,23,-27.286
0.0047,-0.282828,0.10303,23.5,-27.7287
0.0048,-0.282828,0.103434,24,-28.2182
0.0049,-0.29697,0.101414,24.5,-29.1043
0.005,-0.33697,0.102626,25,-31.5147
0.0051,-0.381818,0.101818,25.5,-36.5653
0.0052,-0.414545,0.107879,26,-45.0798
0.0053,-0.44202,0.103838,26.5,-44.6043
0.0054,-0.448081,0.102626,27,-42.5856
0.0055,-0.440404,0.102222,27.5,-40.0316
0.0056,-0.446869,0.10303,28,-38.7628
0.0057,-0.443232,0.102626,28.5,-36.8468
0.0058,-0.421818,0.103838,29,-32.5069
0.0059,-0.418182,0.105455,29.5,-31.0926
0.006,-0.387879,0.101414,30,-30.6865
0.0061,-0.365253,0.0981818,30.5,-28.5195
0.0062,-0.363636,0.101818,31,-26.2134
0.0063,-0.336162,0.105051,31.5,-25.6607
0.0064,-0.304646,0.10101,32,-26.744
0.0065,-0.275556,0.107475,32.5,-27.7044
0.0066,-0.255354,0.106667,33,-28.6653
0.0067,-0.24404,0.105455,33.5,-30.7433
0.0068,-0.24202,0.104646,34,-35.3483
0.0069,-0.237576,0.103838,34.5,-43.6669
0.007,-0.239596,0.10303,35,-49.8082
0.0071,-0.206869,0.108283,35.5,-49.213
0.0072,-0.227475,0.105051,36,-43.1027
0.0073,-0.214141,0.106667,36.5,-37.6388
0.0074,-0.205657,0.107879,37,-32.7741
0.0075,-0.213333,0.103434,37.5,-33.6669
0.0076,-0.234747,0.104646,38,-36.8007
0.0077,-0.232727,0.103838,38.5,-38.4333
0.0078,-0.23596,0.105455,39,-46.8001
0.0079,-0.239192,0.105455,39.5,-35.3832
0.008,-0.248485,0.105051,40,-30.1413
0.0081,-0.251313,0.104242,40.5,-27.6481
0.0082,-0.264242,0.0985859,41,-26.0207
0.0083,-0.272323,0.106667,41.5,-24.8931
0.0084,-0.282424,0.100606,42,-24.0843
0.0085,-0.278788,0.105455,42.5,-24.1853
0.0086,-0.280808,0.106263,43,-24.4966
0.0087,-0.282424,0.103434,43.5,-24.9175
0.0088,-0.286869,0.109091,44,-25.9864
0.0089,-0.322424,0.107475,44.5,-25.7742
0.009,-0.345859,0.107475,45,-25.2666
0.0091,-0.347071,0.106667,45.5,-24.9561
0.0092,-0.360404,0.105859,46,-25.2036
0.0093,-0.347475,0.107071,46.5,-25.7673
0.0094,-0.328081,0.106263,47,-25.0554
0.0095,-0.328081,0.102222,47.5,-24.6403
0.0096,-0.351919,0.101414,48,-25.5764
0.0097,-0.30303,0.102222,48.5,-27.2919
0.0098,-0.294949,0.102222,49,-27.0949
0.0099,-0.316364,0.105051,49.5,-28.1528
0.01,-0.286061,0.107879,50,-28.8683
0.0101,-0.282828,0.107475,50.5,-30.6953
0.0102,-0.276364,0.104242,51,-33.8488
0.0103,-0.244848,0.103838,51.5,-35.9579
0.0104,-0.239596,0.106667,52,-38.4274
0.0105,-0.24404,0.102222,52.5,-40.8123
0.0106,-0.265859,0.104646,53,-40.7552
0.0107,-0.27596,0.103434,53.5,-41.4197
0.0108,-0.277172,0.099798,54,-35.9756
0.0109,-0.292525,0.106667,54.5,-33.2951
0.011,-0.294141,0.104242,55,-33.448
0.0111,-0.298182,0.103838,55.5,-34.011
0.0112,-0.326869,0.102222,56,-33.7891
0.0113,-0.348283,0.107071,56.5,-33.7766
0.0114,-0.366061,0.104646,57,-30.328
0.0115,-0.363636,0.102626,57.5,-28.8345
0.0116,-0.363636,0.105455,58,-30.1293
0.0117,-0.365253,0.101818,58.5,-33.67
0.0118,-0.364444,0.104646,59,-34.5116
0.0119,-0.363636,0.10303,59.5,-29.0908
0.012,-0.370505,0.106263,60,-27.4626
0.0121,-0.372525,0.102222,60.5,-34.7407
0.0122,-0.366061,0.107475,61,-36.5903
0.0123,-0.345051,0.10303,61.5,-35.7745
0.0124,-0.324444,0.101414,62,-33.1158
0.0125,-0.304646,0.10101,62.5,-33.5356
0.0126,-0.317172,0.109899,63,-34.3929
0.0127,-0.325657,0.102626,63.5,-35.9644
0.0128,-0.311515,0.105859,64,-39.9538
0.0129,-0.311111,0.10303,64.5,-44.1173
0.013,-0.314747,0.0993939,65,-41.7876
0.0131,-0.294141,0.102626,65.5,-39.8423
0.0132,-0.323636,0.108283,66,-36.5657
0.0133,-0.335758,0.108283,66.5,-34.7889
0.0134,-0.350707,0.0981818,67,-34.4831
0.0135,-0.350303,0.100202,67.5,-31.0765
0.0136,-0.362424,0.101414,68,-29.8235
0.0137,-0.387879,0.105859,68.5,-29.2293
0.0138,-0.410505,0.102222,69,-29.4451
0.0139,-0.425051,0.101414,69.5,-31.8699
0.014,-0.410909,0.105051,70,-36.6639
0.0141,-0.413737,0.103838,70.5,-44.0949
0.0142,-0.449293,0.104242,71,-41.513
0.0143,-0.47596,0.105859,71.5,-37.9054
0.0144,-0.503838,0.105455,72,-33.9054
0.0145,-0.520808,0.100606,72.5,-31.6403
0.0146,-0.521212,0.101818,73,-30.9272
0.0147,-0.505051,0.106263,73.5,-29.9828
0.0148,-0.483232,0.107879,74,-30.5841
0.0149,-0.479596,0.105859,74.5,-32.2413
0.015,-0.454545,0.106667,75,-32.3038
0.0151,-0.451313,0.108283,75.5,-31.8434
0.0152,-0.44404,0.102222,76,-32.9929
0.0153,-0.406465,0.0993939,76.5,-33.1981
0.0154,-0.396364,0.105051,77,-34.388
0.0155,-0.36404,0.107071,77.5,-32.9957
0.0156,-0.339394,0.100606,78,-30.2844
0.0157,-0.300606,0.10101,78.5,-33.7494
0.0158,-0.282828,0.101818,79,-42.3396
0.0159,-0.283636,0.0993939,79.5,-47.3572
0.016,-0.283636,0.103838,80,-38.1927
0.0161,-0.277576,0.105051,80.5,-34.4472
0.0162,-0.270707,0.103434,81,-32.8905
0.0163,-0.257374,0.101414,81.5,-33.7125
0.0164,-0.272727,0.104646,82,-36.8653
0.0165,-0.284444,0.104242,82.5,-38.1465
0.0166,-0.296162,0.106263,83,-40.8049
0.0167,-0.290101,0.10303,83.5,-37.0146
0.0168,-0.284848,0.099798,84,-32.3412
0.0169,-0.312727,0.10303,84.5,-34.0495
0.017,-0.355152,0.103434,85,-42.1967
0.0171,-0.363636,0.10303,85.5,-42.5515
0.0172,-0.368485,0.10303,86,-37.9052
0.0173,-0.393535,0.100202,86.5,-35.6154
0.0174,-0.397172,0.104242,87,-31.6484
0.0175,-0.402828,0.102222,87.5,-29.4909
0.0176,-0.407273,0.105455,88,-25.8454
0.0177,-0.393535,0.105051,88.5,-26.036
0.0178,-0.370101,0.103838,89,-27.5112
0.0179,-0.375758,0.107475,89.5,-27.4074
0.018,-0.391111,0.108687,90,-27.1203
0.0181,-0.366465,0.105859,90.5,-28.8686
0.0182,-0.36202,0.106667,91,-34.5734
0.0183,-0.356768,0.106263,91.5,-35.2153
0.0184,-0.363232,0.10303,92,-31.5294
0.0185,-0.36202,0.108687,92.5,-27.8723
0.0186,-0.358788,0.106667,93,-27.2391
0.0187,-0.345859,0.106667,93.5,-27.8108
0.0188,-0.320404,0.105051,94,-27.9433
0.0189,-0.317172,0.105859,94.5,-28.2618
0.019,-0.31596,0.107879,95,-30.4282
0.0191,-0.284444,0.107879,95.5,-36.8255
0.0192,-0.262626,0.108687,96,-39.0664
0.0193,-0.208485,0.106263,96.5,-38.9089
0.0194,-0.20202,0.105051,97,-39.7583
0.0195,-0.203232,0.106263,97.5,-38.0346
0.0196,-0.196768,0.105051,98,-33.258
0.0197,-0.195556,0.102222,98.5,-30.0517
0.0198,-0.168889,0.106263,99,-27.7111
0.0199,-0.183838,0.106667,99.5,-26.2465
0.02,-0.201616,0.107071,100,-27.2807
0.0201,-0.20202,0.105455,100.5,-28.6034
0.0202,-0.20202,0.107071,101,-28.1621
0.0203,-0.221818,0.107071,101.5,-27.1729
0.0204,-0.246061,0.101818,102,-27.8229
0.0205,-0.263434,0.110303,102.5,-31.3593
0.0206,-0.277576,0.109899,103,-36.8021
0.0207,-0.311111,0.109091,103.5,-36.9179
0.0208,-0.334141,0.106667,104,-35.2674
0.0209,-0.351515,0.107071,104.5,-35.9283
0.021,-0.36404,0.103434,105,-33.7834
0.0211,-0.393535,0.107071,105.5,-29.3512
0.0212,-0.381414,0.107475,106,-27.4393
0.0213,-0.371313,0.108283,106.5,-28.1331
0.0214,-0.387879,0.104242,107,-29.0469
0.0215,-0.39798,0.101818,107.5,-29.8545
0.0216,-0.419798,0.105859,108,-30.912
0.0217,-0.429899,0.105455,108.5,-30.6106
0.0218,-0.434747,0.102626,109,-32.313
0.0219,-0.438384,0.106263,109.5,-36.0557
0.022,-0.436364,0.104242,110,-37.2411
0.0221,-0.446465,0.104646,110.5,-37.4948
0.0222,-0.445657,0.106263,111,-33.7013
0.0223,-0.42303,0.107879,111.5,-31.3447
0.0224,-0.402828,0.107475,112,-30.8852
0.0225,-0.393131,0.109495,112.5,-31.2106
0.0226,-0.372525,0.109899,113,-33.2732
0.0227,-0.355152,0.107879,113.5,-33.6177
0.0228,-0.317576,0.107879,114,-32.2299
0.0229,-0.286465,0.102626,114.5,-31.9519
0.023,-0.282828,0.108687,115,-37.5415
0.0231,-0.27798,0.110303,115.5,-40.553
0.0232,-0.282828,0.103838,116,-42.3616
0.0233,-0.288485,0.108283,116.5,-40.9619
0.0234,-0.283232,0.105455,117,-38.5507
0.0235,-0.282424,0.102626,117.5,-44.4928
0.0236,-0.298586,0.103434,118,-40.8747
0.0237,-0.323636,0.105455,118.5,-34.9114
0.0238,-0.353535,0.10303,119,-32.9057
0.0239,-0.361212,0.108283,119.5,-31.7747
0.024,-0.363636,0.105455,120,-31.4889
0.0241,-0.363636,0.106667,120.5,-30.5154
0.0242,-0.36202,0.107071,121,-29.8433
0.0243,-0.336566,0.10101,121.5,-31.2788
0.0244,-0.303434,0.106263,122,-35.5206
0.0245,-0.301414,0.105859,122.5,-43.2754
0.0246,-0.291717,0.107071,123,-40.0975
0.0247,-0.28404,0.109495,123.5,-37.0749
0.0248,-0.282828,0.109091,124,-34.4348
0.0249,-0.287677,0.106263,124.5,-33.7589
0.025,-0.301818,0.107475,125,-33.9174
0.0251,-0.288485,0.105455,125.5,-34.9425
0.0252,-0.282828,0.107071,126,-37.5011
0.0253,-0.28,0.106667,126.5,-31.534
0.0254,-0.28202,0.105455,127,-28.9995
0.0255,-0.297778,0.109899,127.5,-34.901
0.0256,-0.294949,0.105859,128,-33.5594
0.0257,-0.283232,0.109091,128.5,-33.8779
0.0258,-0.281616,0.105455,129,-34.4892
0.0259,-0.28202,0.105455,129.5,-33.6666
0.026,-0.288081,0.107475,130,-33.8423
0.0261,-0.286869,0.112323,130.5,-35.7988
0.0262,-0.290101,0.108283,131,-37.1498
0.0263,-0.283636,0.106667,131.5,-35.3238
0.0264,-0.286465,0.104242,132,-36.9205
0.0265,-0.31798,0.106667,132.5,-42.5663
0.0266,-0.330909,0.108283,133,-35.1608
0.0267,-0.357576,0.105455,133.5,-34.404
0.0268,-0.363636,0.107071,134,-36.8208
0.0269,-0.363232,0.105455,134.5,-38.2423
0.027,-0.363636,0.106667,135,-38.3971
0.0271,-0.359192,0.104242,135.5,-37.862
0.0272,-0.359192,0.107071,136,-33.9796
0.0273,-0.363636,0.103434,136.5,-28.6668
0.0274,-0.36,0.107071,137,-30.4183
0.0275,-0.363232,0.10303,137.5,-40.5639
0.0276,-0.364444,0.105051,138,-42.0824
0.0277,-0.365253,0.107475,138.5,-37.1238
0.0278,-0.363636,0.105455,139,-36.394
0.0279,-0.362828,0.106263,139.5,-36.1348
0.028,-0.363636,0.103434,140,-31.8796
0.0281,-0.359192,0.104646,140.5,-33.3424
0.0282,-0.338586,0.108687,141,-39.2876
0.0283,-0.324848,0.108283,141.5,-36.6217
0.0284,-0.29899,0.107879,142,-32.5972
0.0285,-0.301818,0.109091,142.5,-35.0259
0.0286,-0.286465,0.106263,143,-40.4374
0.0287,-0.28404,0.108687,143.5,-43.7884
0.0288,-0.283636,0.106667,144,-44.8538
0.0289,-0.293737,0.103838,144.5,-46.2141
0.029,-0.310707,0.104242,145,-38.0134
0.0291,-0.336162,0.10303,145.5,-33.2153
0.0292,-0.348283,0.102626,146,-30.6638
0.0293,-0.335758,0.10303,146.5,-28.5464
0.0294,-0.312727,0.103838,147,-31.2045
0.0295,-0.34303,0.104646,147.5,-36.434
0.0296,-0.314747,0.103838,148,-37.3627
0.0297,-0.302626,0.10303,148.5,-41.3489
0.0298,-0.308283,0.104646,149,-39.2469
0.0299,-0.305859,0.101414,149.5,-39.921
0.03,-0.298182,0.103838,150,-37.759
0.0301,-0.28202,0.105455,150.5,-38.9914
0.0302,-0.288889,0.105455,151,-41.5442
0.0303,-0.318788,0.109899,151.5,-42.7924
0.0304,-0.319596,0.107879,152,-47.5358
0.0305,-0.292525,0.105051,152.5,-42.5182
0.0306,-0.295758,0.101414,153,-40.8857
0.0307,-0.309495,0.105051,153.5,-38.755
0.0308,-0.32404,0.108687,154,-38.296
0.0309,-0.307879,0.102222,154.5,-38.6315
0.031,-0.284444,0.103838,155,-38.4788
0.0311,-0.282828,0.107475,155.5,-42.0905
0.0312,-0.277576,0.10303,156,-54.8105
0.0313,-0.282828,0.105051,156.5,-43.2409
0.0314,-0.283232,0.105455,157,-51.5055
0.0315,-0.282828,0.106263,157.5,-42.269
0.0316,-0.283232,0.108687,158,-38.8768
0.0317,-0.289293,0.109495,158.5,-37.6459
0.0318,-0.308687,0.109899,159,-36.4832
0.0319,-0.326061,0.105455,159.5,-42.3561
0.032,-0.29899,0.105051,160,-49.4736
0.0321,-0.293737,0.105859,160.5,-45.027
0.0322,-0.286465,0.108283,161,-39.6602
0.0323,-0.282424,0.105455,161.5,-38.6088
0.0324,-0.274343,0.109091,162,-40.8612
0.0325,-0.281616,0.106667,162.5,-40.2379
0.0326,-0.314343,0.107071,163,-40.4297
0.0327,-0.318384,0.107071,163.5,-45.0865
0.0328,-0.320404,0.105859,164,-48.135
0.0329,-0.312727,0.106263,164.5,-42.291
0.033,-0.30303,0.107475,165,-40.6696
0.0331,-0.283232,0.107879,165.5,-47.3031
0.0332,-0.288889,0.109899,166,-33.2027
0.0333,-0.28404,0.108283,166.5,-38.8005
0.0334,-0.299798,0.105051,167,-46.9394
0.0335,-0.320404,0.109495,167.5,-48.5657
0.0336,-0.315556,0.107475,168,-42.4113
0.0337,-0.326869,0.106667,168.5,-41.8097
0.0338,-0.319596,0.107071,169,-38.3271
0.0339,-0.284444,0.106263,169.5,-38.5673
0.034,-0.283636,0.107879,170,-42.5727
0.0341,-0.299798,0.105051,170.5,-44.7915
0.0342,-0.288485,0.108283,171,-47.7906
0.0343,-0.308687,0.108687,171.5,-47.3597
0.0344,-0.302626,0.106263,172,-53.2034
0.0345,-0.30303,0.103838,172.5,-53.5075
0.0346,-0.334545,0.101414,173,-40.7629
0.0347,-0.363636,0.102626,173.5,-40.8881
0.0348,-0.363636,0.104646,174,-38.2883
0.0349,-0.365253,0.105455,174.5,-35.3626
0.035,-0.371313,0.106667,175,-35.1838
0.0351,-0.370909,0.105859,175.5,-40.2674
0.0352,-0.383434,0.108283,176,-38.8841
0.0353,-0.401616,0.107475,176.5,-39.1731
0.0354,-0.399192,0.108687,177,-37.0777
0.0355,-0.388687,0.107879,177.5,-34.3754
0.0356,-0.368081,0.108687,178,-32.1795
0.0357,-0.363636,0.104242,178.5,-31.4837
0.0358,-0.363636,0.103434,179,-30.9148
0.0359,-0.364444,0.104242,179.5,-32.3008
0.036,-0.396364,0.107475,180,-34.481
0.0361,-0.410909,0.103434,180.5,-40.9661
0.0362,-0.410505,0.106667,181,-45.3307
0.0363,-0.392727,0.105455,181.5,-38.1961
0.0364,-0.376566,0.105051,182,-38.4841
0.0365,-0.401212,0.107879,182.5,-38.4932
0.0366,-0.388687,0.103838,183,-37.2031
0.0367,-0.369293,0.107071,183.5,-38.0144
0.0368,-0.359192,0.109091,184,-38.5849
0.0369,-0.33697,0.107879,184.5,-38.5395
0.037,-0.340606,0.107071,185,-35.5531
0.0371,-0.335758,0.105455,185.5,-32.0276
0.0372,-0.328081,0.107071,186,-37.4639
0.0373,-0.356768,0.103434,186.5,-43.9978
0.0374,-0.361212,0.105455,187,-39.7918
0.0375,-0.358788,0.102626,187.5,-36.2698
0.0376,-0.332929,0.106263,188,-37.7626
0.0377,-0.351919,0.103434,188.5,-40.3354
0.0378,-0.359596,0.107879,189,-39.2995
0.0379,-0.363232,0.109091,189.5,-41.6621
0.038,-0.361212,0.10303,190,-44.4484
0.0381,-0.363636,0.107071,190.5,-43.5473
0.0382,-0.36404,0.105051,191,-45.7414
0.0383,-0.368081,0.10303,191.5,-45.8569
0.0384,-0.363636,0.10303,192,-47.9644
0.0385,-0.358788,0.105859,192.5,-53.9459
0.0386,-0.363636,0.107071,193,-47.0171
0.0387,-0.366061,0.109091,193.5,-46.4754
0.0388,-0.368889,0.107071,194,-40.8351
0.0389,-0.366061,0.109495,194.5,-38.0332
0.039,-0.375354,0.105455,195,-33.2993
0.0391,-0.365253,0.103434,195.5,-30.3205
0.0392,-0.363232,0.106263,196,-31.0988
0.0393,-0.363636,0.107879,196.5,-31.6492
0.0394,-0.36404,0.106263,197,-32.4045
0.0395,-0.374141,0.105859,197.5,-32.5804
0.0396,-0.376566,0.100202,198,-32.1001
0.0397,-0.375758,0.107879,198.5,-32.275
0.0398,-0.372929,0.106667,199,-34.0735
0.0399,-0.401616,0.104646,199.5,-35.5432
0.04,-0.394747,0.103838,200,-36.1658
0.0401,-0.39596,0.105051,200.5,-39.084
0.0402,-0.402828,0.107879,201,-43.4318
0.0403,-0.406061,0.103838,201.5,-52.4425
0.0404,-0.398384,0.104646,202,-42.5488
0.0405,-0.384242,0.102222,202.5,-38.8353
0.0406,-0.366061,0.102626,203,-35.7854
0.0407,-0.36404,0.105859,203.5,-34.705
0.0408,-0.363232,0.107071,204,-37.5691
0.0409,-0.362828,0.102626,204.5,-37.5929
0.041,-0.364848,0.10303,205,-35.2614
0.0411,-0.373737,0.102222,205.5,-36.8421
0.0412,-0.367677,0.105859,206,-38.531
0.0413,-0.373333,0.103434,206.5,-38.3166
0.0414,-0.36404,0.106667,207,-38.302
0.0415,-0.368081,0.105051,207.5,-38.2469
0.0416,-0.389091,0.105859,208,-40.2007
0.0417,-0.402424,0.108687,208.5,-42.7808
0.0418,-0.40202,0.109495,209,-43.6956
0.0419,-0.402424,0.107475,209.5,-43.668
0.042,-0.403232,0.105455,210,-43.2908
0.0421,-0.405657,0.105051,210.5,-41.6888
0.0422,-0.401616,0.105859,211,-38.3594
0.0423,-0.403636,0.111111,211.5,-37.2591
0.0424,-0.400404,0.105455,212,-35.7909
0.0425,-0.389091,0.107879,212.5,-36.2983
0.0426,-0.374949,0.106667,213,-42.6754
0.0427,-0.376162,0.105051,213.5,-52.2418
0.0428,-0.372525,0.104242,214,-46.0005
0.0429,-0.384242,0.108283,214.5,-40.8294
0.043,-0.387879,0.103434,215,-37.1793
0.0431,-0.372525,0.109495,215.5,-38.6535
0.0432,-0.384242,0.103434,216,-40.0452
0.0433,-0.390707,0.107071,216.5,-43.5421
0.0434,-0.403232,0.105455,217,-42.7431
0.0435,-0.365253,0.100606,217.5,-40.2043
0.0436,-0.363636,0.104646,218,-39.168
0.0437,-0.363636,0.10303,218.5,-38.4826
0.0438,-0.363636,0.104646,219,-37.6975
0.0439,-0.370505,0.105051,219.5,-41.1461
0.044,-0.363232,0.102626,220,-46.2643
0.0441,-0.363232,0.106667,220.5,-48.1575
0.0442,-0.362828,0.104646,221,-40.6921
0.0443,-0.363232,0.108687,221.5,-45.9642
0.0444,-0.363636,0.104646,222,-48.6639
0.0445,-0.36404,0.103838,222.5,-43.3213
0.0446,-0.362424,0.107879,223,-40.5063
0.0447,-0.358788,0.105051,223.5,-37.55
0.0448,-0.362424,0.107475,224,-33.7999
0.0449,-0.357576,0.103434,224.5,-30.9754
0.045,-0.362828,0.107071,225,-33.9598
0.0451,-0.340606,0.105455,225.5,-34.77
0.0452,-0.322424,0.10303,226,-33.7609
0.0453,-0.331717,0.105455,226.5,-35.2321
0.0454,-0.348283,0.104646,227,-36.9241
0.0455,-0.343838,0.102626,227.5,-36.4007
0.0456,-0.339798,0.105859,228,-38.4983
0.0457,-0.336162,0.107071,228.5,-42.2506
0.0458,-0.353939,0.107071,229,-59.0416
0.0459,-0.393535,0.107475,229.5,-46.7135
0.046,-0.398788,0.103838,230,-45.3209
0.0461,-0.382626,0.106263,230.5,-42.5844
0.0462,-0.363636,0.107071,231,-42.6502
0.0463,-0.343838,0.107475,231.5,-45.9846
0.0464,-0.323636,0.105051,232,-44.6976
0.0465,-0.357576,0.105051,232.5,-36.9375
0.0466,-0.359596,0.108687,233,-34.9232
0.0467,-0.324848,0.106263,233.5,-36.1307
0.0468,-0.32202,0.107475,234,-41.691
0.0469,-0.326061,0.107071,234.5,-45.0429
0.047,-0.350303,0.105859,235,-38.7256
0.0471,-0.363232,0.105051,235.5,-38.6098
0.0472,-0.365253,0.107475,236,-42.3345
0.0473,-0.36202,0.107879,236.5,-43.407
0.0474,-0.344242,0.103838,237,-43.318
0.0475,-0.324444,0.105859,237.5,-42.4076
0.0476,-0.320404,0.107071,238,-45.793
0.0477,-0.318384,0.102222,238.5,-43.5032
0.0478,-0.341414,0.102222,239,-42.4788
0.0479,-0.361212,0.103434,239.5,-37.2478
0.048,-0.362828,0.101414,240,-36.0372
0.0481,-0.362424,0.111111,240.5,-38.4123
0.0482,-0.363636,0.103838,241,-44.0473
0.0483,-0.36404,0.106263,241.5,-52.379
0.0484,-0.364444,0.105859,242,-48.5772
0.0485,-0.364848,0.104242,242.5,-45.7764
0.0486,-0.363636,0.109495,243,-42.7085
0.0487,-0.363636,0.106667,243.5,-44.807
0.0488,-0.363636,0.106263,244,-45.5485
0.0489,-0.368889,0.105455,244.5,-47.8468
0.049,-0.363636,0.109091,245,-44.3837
0.0491,-0.363636,0.104646,245.5,-42.5695
0.0492,-0.345455,0.109495,246,-45.4695
0.0493,-0.362828,0.107071,246.5,-44.198
0.0494,-0.33899,0.107071,247,-43.427
0.0495,-0.294141,0.105455,247.5,-44.9144
0.0496,-0.288081,0.107071,248,-45.1792
0.0497,-0.283232,0.105859,248.5,-45.9211
0.0498,-0.286465,0.111919,249,-49.5329
0.0499,-0.282424,0.108687,249.5,-45.97
0.05,-0.277172,0.111111,250,-41.6652
0.0501,-0.280808,0.107475,250.5,-38.3358
0.0502,-0.269091,0.105051,251,-40.4784
0.0503,-0.250505,0.107879,251.5,-40.616
0.0504,-0.267879,0.102222,252,-38.7458
0.0505,-0.25697,0.105455,252.5,-37.022
0.0506,-0.285253,0.103838,253,-35.3992
0.0507,-0.295758,0.104646,253.5,-33.2422
0.0508,-0.315152,0.106263,254,-33.365
0.0509,-0.325253,0.104646,254.5,-35.3477
0.051,-0.321212,0.103434,255,-36.8028
0.0511,-0.325657,0.106667,255.5,-36.5367
0.0512,-0.287677,0.107879,256,-40.7667
0.0513,-0.289293,0.105859,256.5,-44.4587
0.0514,-0.283232,0.108687,257,-45.2978
0.0515,-0.274343,0.107071,257.5,-48.557
0.0516,-0.266263,0.109495,258,-54.7496
0.0517,-0.28202,0.104242,258.5,-47.1514
0.0518,-0.282424,0.109495,259,-41.9978
0.0519,-0.25899,0.106667,259.5,-44.1762
0.052,-0.28202,0.104646,260,-51.2057
0.0521,-0.283232,0.105859,260.5,-51.565
0.0522,-0.265859,0.104242,261,-49.7697
0.0523,-0.268283,0.106667,261.5,-42.2674
0.0524,-0.257374,0.108283,262,-42.1889
0.0525,-0.258182,0.110303,262.5,-44.4412
0.0526,-0.243636,0.107879,263,-47.4908
0.0527,-0.241212,0.107071,263.5,-45.9244
0.0528,-0.243636,0.105455,264,-49.581
0.0529,-0.263434,0.107475,264.5,-36.6217
0.053,-0.265051,0.107475,265,-36.9013
0.0531,-0.241616,0.108283,265.5,-40.587
0.0532,-0.235556,0.107071,266,-42.1065
0.0533,-0.225859,0.108283,266.5,-42.6667
0.0534,-0.233939,0.105859,267,-42.0325
0.0535,-0.24404,0.107475,267.5,-47.8616
0.0536,-0.232323,0.104242,268,-48.0816
0.0537,-0.204444,0.109899,268.5,-41.5874
0.0538,-0.218586,0.108283,269,-42.8205
0.0539,-0.227475,0.107475,269.5,-46.1248
0.054,-0.225859,0.107475,270,-45.4006
0.0541,-0.245657,0.111515,270.5,-43.6974
0.0542,-0.246869,0.107071,271,-46.5711
0.0543,-0.228687,0.107071,271.5,-60
0.0544,-0.226263,0.107475,272,-46.4444
0.0545,-0.261414,0.107475,272.5,-37.9382
0.0546,-0.328889,0.105455,273,-34.3527
0.0547,-0.538586,0.106667,273.5,-32.6164
0.0548,-0.689697,0.105455,274,-35.0975
0.0549,-0.783838,0.105455,274.5,-39.6588
0.055,-0.852929,0.105455,275,-45.224
0.0551,-0.883636,0.108283,275.5,-48.9069
0.0552,-0.891313,0.104646,276,-47.6857
0.0553,-0.924444,0.108687,276.5,-45.0489
0.0554,-0.895758,0.105051,277,-40.2648
0.0555,-0.849697,0.105859,277.5,-39.1301
0.0556,-0.846869,0.104242,278,-38.9612
0.0557,-0.843636,0.106667,278.5,-38.6664
0.0558,-0.827879,0.109495,279,-40.1568
0.0559,-0.831111,0.10303,279.5,-40.4571
0.056,-0.834747,0.102222,280,-41.8222
0.0561,-0.821414,0.105455,280.5,-48.5396
0.0562,-0.784242,0.107071,281,-51.3529
0.0563,-0.767677,0.106263,281.5,-45.1947
0.0564,-0.768889,0.108687,282,-46.8591
0.0565,-0.768485,0.106667,282.5,-52.6306
0.0566,-0.745455,0.107071,283,-49.6163
0.0567,-0.747879,0.10303,283.5,-45.3459
0.0568,-0.730505,0.103434,284,-47.0859
0.0569,-0.703838,0.105455,284.5,-45.9123
0.057,-0.696162,0.107879,285,-50.5909
0.0571,-0.676768,0.108283,285.5,-60
0.0572,-0.500202,0.107071,286,-47.1541
0.0573,-0.293737,0.106263,286.5,-40.3826
0.0574,-0.168081,0.105455,287,-39.2387
0.0575,-0.0686869,0.108283,287.5,-40.7049
0.0576,0.0020202,0.110707,288,-42.43
0.0577,0.0662626,0.112323,288.5,-39.52
0.0578,0.0711111,0.107475,289,-37.1357
0.0579,0.080404,0.108687,289.5,-37.638
0.058,0.0961616,0.109899,290,-36.927
0.0581,0.117576,0.109495,290.5,-35.6263
0.0582,0.0969697,0.108283,291,-39.1309
0.0583,0.0816162,0.105455,291.5,-41.4749
0.0584,0.0763636,0.107879,292,-40.8357
0.0585,0.0509091,0.105455,292.5,-41.2488
0.0586,0.0383838,0.107071,293,-41.5239
0.0587,0.040404,0.108283,293.5,-41.5812
0.0588,0.039596,0.108283,294,-41.1375
0.0589,0.040404,0.105051,294.5,-40.4486
0.059,0.0464646,0.109899,295,-43.1829
0.0591,0.0480808,0.113131,295.5,-48.6178
0.0592,0.0412121,0.109899,296,-51.7155
0.0593,0.0339394,0.108687,296.5,-48.3585
0.0594,-0.0117172,0.106667,297,-46.047
0.0595,-0.0165657,0.108687,297.5,-50.1636
0.0596,-0.020202,0.108283,298,-49.0238
0.0597,-0.029899,0.106263,298.5,-48.6726
0.0598,-0.0379798,0.101818,299,-51.6687
0.0599,-0.0517172,0.106667,299.5,-49.0563
0.06,-0.0824242,0.109091,300,-46.4019
0.0601,-0.135354,0.107475,300.5,-46.3675
0.0602,-0.193939,0.109899,301,-45.0718
0.0603,-0.20404,0.109495,301.5,-47.5174
0.0604,-0.223838,0.103838,302,-46.1183
0.0605,-0.233939,0.106667,302.5,-44.2903
0.0606,-0.241616,0.105859,303,-46.2335
0.0607,-0.276364,0.104242,303.5,-49.947
0.0608,-0.303838,0.107071,304,-43.7093
0.0609,-0.330101,0.101818,304.5,-43.5015
0.061,-0.363232,0.107071,305,-50.2996
0.0611,-0.363636,0.105859,305.5,-50.2528
0.0612,-0.373333,0.105859,306,-44.1373
0.0613,-0.385051,0.107475,306.5,-43.3351
0.0614,-0.372121,0.106667,307,-44.2068
0.0615,-0.370101,0.105051,307.5,-42.3901
0.0616,-0.38303,0.110303,308,-42.7626
0.0617,-0.383434,0.109091,308.5,-49.8117
0.0618,-0.357576,0.108283,309,-50.9033
0.0619,-0.368889,0.108687,309.5,-46.4009
0.062,-0.358788,0.103434,310,-42.6157
0.0621,-0.362828,0.107475,310.5,-44.9549
0.0622,-0.34101,0.109091,311,-47.2833
0.0623,-0.343434,0.106667,311.5,-42.0381
0.0624,-0.337778,0.107071,312,-37.9972
0.0625,-0.308687,0.107879,312.5,-35.7073
0.0626,-0.283636,0.105455,313,-41.0616
0.0627,-0.290909,0.107475,313.5,-60
0.0628,-0.325657,0.109495,314,-55.3432
0.0629,-0.319596,0.105455,314.5,-53.0543
0.063,-0.299798,0.107071,315,-51.8783
0.0631,-0.285253,0.106667,315.5,-56.4711
0.0632,-0.286061,0.105051,316,-50.0158
0.0633,-0.295758,0.107879,316.5,-48.7985
0.0634,-0.304646,0.110303,317,-52.9023
0.0635,-0.305859,0.106667,317.5,-50.5244
0.0636,-0.322424,0.102626,318,-58.3527
0.0637,-0.321616,0.107879,318.5,-47.4693
0.0638,-0.338586,0.109091,319,-44.9269
0.0639,-0.326465,0.107475,319.5,-47.4419
0.064,-0.32404,0.109091,320,-47.1606
0.0641,-0.338182,0.106667,320.5,-43.7966
0.0642,-0.362424,0.111111,321,-46.6968
0.0643,-0.35798,0.109495,321.5,-48.2045
0.0644,-0.359596,0.103434,322,-50.8797
0.0645,-0.362828,0.105859,322.5,-51.0176
0.0646,-0.364444,0.107071,323,-50.3625
0.0647,-0.367273,0.107879,323.5,-49.8915
0.0648,-0.365657,0.106263,324,-52.012
0.0649,-0.36404,0.103434,324.5,-50.6117
0.065,-0.367273,0.103434,325,-48.4398
0.0651,-0.362828,0.106263,325.5,-44.9933
0.0652,-0.362828,0.106263,326,-48.8144
0.0653,-0.360404,0.109495,326.5,-53.4162
0.0654,-0.362424,0.106667,327,-56.4726
0.0655,-0.362424,0.106263,327.5,-43.1245
0.0656,-0.33697,0.105859,328,-44.2737
0.0657,-0.327677,0.105051,328.5,-47.8094
0.0658,-0.305051,0.104646,329,-42.4399
0.0659,-0.299798,0.107071,329.5,-39.4267
0.066,-0.284848,0.108687,330,-41.888
0.0661,-0.29697,0.102626,330.5,-43.9108
0.0662,-0.294949,0.104646,331,-43.1529
0.0663,-0.303838,0.106667,331.5,-43.3808
0.0664,-0.292121,0.106263,332,-42.3063
0.0665,-0.313535,0.105455,332.5,-44.292
0.0666,-0.302222,0.109899,333,-44.4313
0.0667,-0.328889,0.112727,333.5,-43.8559
0.0668,-0.346263,0.105859,334,-45.0675
0.0669,-0.351515,0.111111,334.5,-44.7226
0.067,-0.343838,0.105859,335,-43.2732
0.0671,-0.34101,0.106263,335.5,-44.1767
0.0672,-0.294141,0.107071,336,-45.9087
0.0673,-0.278384,0.105859,336.5,-47.086
0.0674,-0.30303,0.108283,337,-47.472
0.0675,-0.311515,0.102222,337.5,-51.4586
0.0676,-0.283232,0.105455,338,-59.572
0.0677,-0.282828,0.103838,338.5,-49.6641
0.0678,-0.281616,0.104646,339,-46.5918
0.0679,-0.282424,0.102626,339.5,-57.6979
0.068,-0.283232,0.103838,340,-48.8079
0.0681,-0.282828,0.100202,340.5,-48.614
0.0682,-0.28,0.104242,341,-45.0636
0.0683,-0.283636,0.108283,341.5,-46.1675
0.0684,-0.307475,0.103434,342,-58.4232
0.0685,-0.314343,0.106667,342.5,-53.4975
0.0686,-0.320404,0.102626,343,-52.3429
0.0687,-0.313535,0.105051,343.5,-50.1458
0.0688,-0.32404,0.106667,344,-49.1526
0.0689,-0.323232,0.106667,344.5,-48.5634
0.069,-0.320808,0.101414,345,-47.8973
0.0691,-0.311515,0.107879,345.5,-49.5568
0.0692,-0.349495,0.106667,346,-51.0608
0.0693,-0.342222,0.105051,346.5,-48.1651
0.0694,-0.332525,0.103838,347,-43.2655
0.0695,-0.330909,0.107071,347.5,-41.7219
0.0696,-0.348283,0.104242,348,-43.1132
0.0697,-0.328485,0.107071,348.5,-42.5798
0.0698,-0.307475,0.107879,349,-41.2691
0.0699,-0.292929,0.104646,349.5,-42.0489
0.07,-0.307475,0.108687,350,-41.422
0.0701,-0.311515,0.109495,350.5,-44.0306
0.0702,-0.304646,0.109091,351,-45.359
0.0703,-0.284444,0.106667,351.5,-42.241
0.0704,-0.311111,0.10303,352,-49.7658
0.0705,-0.290505,0.106667,352.5,-55.3451
0.0706,-0.282828,0.103434,353,-57.0089
0.0707,-0.281616,0.106667,353.5,-51.0499
0.0708,-0.282424,0.106667,354,-46.2292
0.0709,-0.283636,0.106263,354.5,-51.1644
0.071,-0.282828,0.108283,355,-50.5721
0.0711,-0.28404,0.104646,355.5,-46.3456
0.0712,-0.308283,0.101818,356,-46.3844
0.0713,-0.331717,0.107879,356.5,-45.7553
0.0714,-0.353131,0.104242,357,-48.9625
0.0715,-0.361616,0.105455,357.5,-60
0.0716,-0.362828,0.104646,358,-54.3298
0.0717,-0.36202,0.105455,358.5,-48.6614
0.0718,-0.351919,0.110303,359,-47.4838
0.0719,-0.356364,0.104646,359.5,-48.6991
0.072,-0.345051,0.103838,360,-45.5284
0.0721,-0.355152,0.104646,360.5,-44.0157
0.0722,-0.363636,0.108687,361,-46.1272
0.0723,-0.364444,0.104242,361.5,-45.0495
0.0724,-0.363232,0.10303,362,-50.392
0.0725,-0.337778,0.103434,362.5,-51.3425
0.0726,-0.334545,0.104242,363,-48.8663
0.0727,-0.334545,0.104646,363.5,-50.4746
0.0728,-0.328081,0.104646,364,-48.1826
0.0729,-0.324444,0.104646,364.5,-48.3907
0.073,-0.299394,0.103838,365,-48.4655
0.0731,-0.300606,0.105051,365.5,-49.2298
0.0732,-0.284848,0.105051,366,-54.5641
0.0733,-0.28404,0.108687,366.5,-58.6075
0.0734,-0.269495,0.107071,367,-51.4371
0.0735,-0.254141,0.107475,367.5,-44.8018
0.0736,-0.266667,0.106667,368,-45.6261
0.0737,-0.291313,0.105051,368.5,-48.9605
0.0738,-0.288485,0.104646,369,-54.2868
0.0739,-0.292929,0.106667,369.5,-53.0852
0.074,-0.328081,0.105051,370,-48.3796
0.0741,-0.337778,0.103838,370.5,-46.1376
0.0742,-0.318788,0.102222,371,-45.3659
0.0743,-0.308283,0.10303,371.5,-45.4982
0.0744,-0.283636,0.105051,372,-44.3154
0.0745,-0.283232,0.109899,372.5,-44.1871
0.0746,-0.28202,0.105859,373,-46.627
0.0747,-0.292929,0.110707,373.5,-48.0367
0.0748,-0.32202,0.105859,374,-45.1881
0.0749,-0.350303,0.105051,374.5,-44.2482
0.075,-0.367273,0.110303,375,-45.2652
0.0751,-0.394343,0.108687,375.5,-49.3111
0.0752,-0.410505,0.108687,376,-59.0635
0.0753,-0.441212,0.107071,376.5,-60
0.0754,-0.454545,0.108283,377,-60
0.0755,-0.482424,0.109899,377.5,-55.9445
0.0756,-0.509899,0.104242,378,-60
0.0757,-0.52404,0.109495,378.5,-49.3265
0.0758,-0.525253,0.105859,379,-45.9643
0.0759,-0.524444,0.105859,379.5,-47.8628
0.076,-0.510303,0.109899,380,-48.7228
0.0761,-0.479192,0.109091,380.5,-45.6793
0.0762,-0.458182,0.108687,381,-46.4104
0.0763,-0.441616,0.107071,381.5,-44.5227
0.0764,-0.437172,0.111515,382,-45.5915
0.0765,-0.408889,0.109495,382.5,-47.7819
0.0766,-0.370505,0.103838,383,-50.9421
0.0767,-0.36404,0.104646,383.5,-47.8908
0.0768,-0.362424,0.103434,384,-50.2099
0.0769,-0.362828,0.103434,384.5,-54.1831
0.077,-0.362424,0.104242,385,-60
0.0771,-0.337374,0.109091,385.5,-49.3696
0.0772,-0.312727,0.107879,386,-47.2591
0.0773,-0.304242,0.109899,386.5,-48.8873
0.0774,-0.28404,0.109091,387,-50.4254
0.0775,-0.291717,0.108283,387.5,-48.5321
0.0776,-0.446465,0.109091,388,-48.584
0.0777,-0.570909,0.105455,388.5,-47.5903
0.0778,-0.64,0.104242,389,-46.078
0.0779,-0.686869,0.107071,389.5,-46.2192
0.078,-0.692929,0.10101,390,-48.2218
0.0781,-0.727273,0.103434,390.5,-47.9591
0.0782,-0.746263,0.107475,391,-46.5697
0.0783,-0.769293,0.105859,391.5,-47.8741
0.0784,-0.80202,0.100606,392,-46.9361
0.0785,-0.844444,0.107879,392.5,-46.4401
0.0786,-0.848485,0.108283,393,-49.6283
0.0787,-0.848485,0.104242,393.5,-49.1999
0.0788,-0.848485,0.104646,394,-52.6109
0.0789,-0.854141,0.0993939,394.5,-60
0.079,-0.859798,0.107475,395,-53.4691
0.0791,-0.852121,0.109899,395.5,-52.2539
0.0792,-0.850505,0.107475,396,-50.4443
0.0793,-0.836364,0.109091,396.5,-53.8686
0.0794,-0.824242,0.108283,397,-54.3217
0.0795,-0.815758,0.109495,397.5,-51.1343
0.0796,-0.791919,0.105051,398,-46.9681
0.0797,-0.777778,0.107071,398.5,-48.2078
0.0798,-0.731313,0.105455,399,-53.9441
0.0799,-0.520404,0.106667,399.5,-55.6692
0.08,-0.34101,0.107071,400,-47.8383
0.0801,-0.238384,0.107879,400.5,-47.4861
0.0802,-0.180606,0.107071,401,-54.4911
0.0803,-0.12404,0.111515,401.5,-52.9856
0.0804,-0.126465,0.105859,402,-51.97
0.0805,-0.121212,0.110303,402.5,-57.6332
0.0806,-0.118788,0.105455,403,-60
0.0807,-0.118384,0.107475,403.5,-60
0.0808,-0.128485,0.105859,404,-58.5773
0.0809,-0.151919,0.103434,404.5,-54.5336
0.081,-0.145051,0.105051,405,-56.1434
0.0811,-0.150707,0.105859,405.5,-51.9183
0.0812,-0.125253,0.108687,406,-52.9802
0.0813,-0.120808,0.102222,406.5,-60
0.0814,-0.121212,0.105051,407,-56.9333
0.0815,-0.130505,0.103434,407.5,-56.1645
0.0816,-0.118384,0.107071,408,-60
0.0817,-0.107071,0.100202,408.5,-58.8195
0.0818,-0.121212,0.103434,409,-59.3736
0.0819,-0.124848,0.107071,409.5,-56.4872
0.082,-0.12,0.106667,410,-53.6156
0.0821,-0.115152,0.102222,410.5,-50.2493
0.0822,-0.0953535,0.104646,411,-45.3033
0.0823,-0.0868687,0.105051,411.5,-44.7064
0.0824,-0.101818,0.103838,412,-43.4235
0.0825,-0.117576,0.106263,412.5,-42.3453
0.0826,-0.140606,0.105051,413,-45.7194
0.0827,-0.145051,0.101818,413.5,-45.9406
0.0828,-0.153131,0.107071,414,-43.8259
0.0829,-0.167677,0.105859,414.5,-44.9964
0.083,-0.197576,0.106667,415,-46.608
0.0831,-0.190707,0.103434,415.5,-50.2164
0.0832,-0.20202,0.103838,416,-49.1993
0.0833,-0.200404,0.103434,416.5,-50.1092
0.0834,-0.197172,0.101414,417,-49.2675
0.0835,-0.216566,0.101818,417.5,-55.6759
0.0836,-0.243636,0.103434,418,-57.6583
0.0837,-0.251313,0.104242,418.5,-54.5473
0.0838,-0.244848,0.108283,419,-56.6641
0.0839,-0.268687,0.108687,419.5,-51.7755
0.084,-0.282828,0.108687,420,-49.7548
0.0841,-0.26303,0.10303,420.5,-53.5638
0.0842,-0.23798,0.106263,421,-46.19
0.0843,-0.245253,0.107475,421.5,-46.9681
0.0844,-0.239596,0.104242,422,-56.602
0.0845,-0.208485,0.109091,422.5,-54.696
0.0846,-0.185455,0.105859,423,-49.6305
0.0847,-0.16202,0.103838,423.5,-47.658
0.0848,-0.159596,0.103838,424,-47.3224
0.0849,-0.159596,0.106263,424.5,-59.2795
0.085,-0.163636,0.108687,425,-52.5637
0.0851,-0.166465,0.109899,425.5,-60
0.0852,-0.15798,0.106263,426,-52.7688
0.0853,-0.128081,0.103838,426.5,-55.0739
0.0854,-0.122828,0.108283,427,-58.7242
0.0855,-0.119192,0.105051,427.5,-58.7148
0.0856,-0.0977778,0.105455,428,-60
0.0857,-0.0937374,0.10101,428.5,-54.3344
0.0858,-0.0888889,0.104242,429,-49.765
0.0859,-0.109091,0.101818,429.5,-48.297
0.086,-0.120808,0.104646,430,-53.3375
0.0861,-0.12202,0.104242,430.5,-60
0.0862,-0.121212,0.109495,431,-55.6388
0.0863,-0.124848,0.104646,431.5,-50.3056
0.0864,-0.129697,0.108687,432,-49.7642
0.0865,-0.14303,0.109091,432.5,-48.3077
0.0866,-0.162424,0.108283,433,-50.4206
0.0867,-0.175354,0.108283,433.5,-54.6558
0.0868,-0.193535,0.106263,434,-52.7348
0.0869,-0.193939,0.108283,434.5,-51.4372
0.087,-0.201616,0.110303,435,-52.0055
0.0871,-0.213737,0.105455,435.5,-51.3006
0.0872,-0.242424,0.106263,436,-51.7514
0.0873,-0.238788,0.105455,436.5,-60
0.0874,-0.274343,0.108283,437,-60
0.0875,-0.288889,0.107071,437.5,-56.0508
0.0876,-0.304646,0.110303,438,-49.7644
0.0877,-0.347475,0.102626,438.5,-51.1401
0.0878,-0.365657,0.105455,439,-54.928
0.0879,-0.394343,0.105455,439.5,-60
0.088,-0.405253,0.105859,440,-51.9477
0.0881,-0.404444,0.104646,440.5,-50.4458
0.0882,-0.439192,0.105051,441,-52.5946
0.0883,-0.430303,0.107475,441.5,-60
0.0884,-0.443636,0.105455,442,-60
0.0885,-0.450909,0.104646,442.5,-49.8454
0.0886,-0.455758,0.105859,443,-51.1404
0.0887,-0.414141,0.106667,443.5,-54.5912
0.0888,-0.406465,0.103434,444,-52.1242
0.0889,-0.394343,0.105455,444.5,-50.5947
0.089,-0.367273,0.104242,445,-49.7963
0.0891,-0.363232,0.105859,445.5,-48.2799
0.0892,-0.343838,0.105859,446,-47.3061
0.0893,-0.320808,0.107475,446.5,-46.8952
0.0894,-0.290909,0.105051,447,-50.2681
0.0895,-0.284444,0.105455,447.5,-54.2879
0.0896,-0.282828,0.104646,448,-50.7484
0.0897,-0.287273,0.107475,448.5,-49.0829
0.0898,-0.294949,0.103434,449,-48.6374
0.0899,-0.314747,0.106263,449.5,-48.8815
0.09,-0.361616,0.104242,450,-60
0.0901,-0.364444,0.105051,450.5,-52.4109
0.0902,-0.387475,0.105455,451,-46.1033
0.0903,-0.398788,0.104242,451.5,-47.8708
0.0904,-0.403232,0.107879,452,-51.2637
0.0905,-0.427071,0.105051,452.5,-53.1807
0.0906,-0.436364,0.105455,453,-49.1906
0.0907,-0.452525,0.105051,453.5,-46.551
0.0908,-0.46101,0.104646,454,-46.3702
0.0909,-0.50303,0.101414,454.5,-48.2257
0.091,-0.519192,0.0973737,455,-49.0288
0.0911,-0.520404,0.105051,455.5,-47.8633
0.0912,-0.525657,0.103838,456,-46.7922
0.0913,-0.528485,0.105455,456.5,-47.4994
0.0914,-0.525253,0.109091,457,-51.1008
0.0915,-0.523232,0.101414,457.5,-59.1743
0.0916,-0.490909,0.107071,458,-60
0.0917,-0.467475,0.10303,458.5,-53.4245
0.0918,-0.408081,0.0969697,459,-50.5493
0.0919,-0.365253,0.10303,459.5,-56.537
0.092,-0.345455,0.109495,460,-53.8496
0.0921,-0.299394,0.106667,460.5,-51.177
0.0922,-0.28404,0.107475,461,-52.0057
0.0923,-0.27798,0.102626,461.5,-56.4448
0.0924,-0.261818,0.108687,462,-57.9827
0.0925,-0.253333,0.104242,462.5,-60
0.0926,-0.269899,0.104242,463,-52.7494
0.0927,-0.254141,0.103838,463.5,-48.9507
0.0928,-0.275556,0.103434,464,-49.7734
0.0929,-0.297374,0.099798,464.5,-48.8272
0.093,-0.317576,0.102222,465,-46.403
0.0931,-0.316364,0.101818,465.5,-48.4831
0.0932,-0.306667,0.107071,466,-52.0502
0.0933,-0.320404,0.10303,466.5,-54.7114
0.0934,-0.344646,0.104242,467,-53.3154
0.0935,-0.352323,0.10101,467.5,-56.627
0.0936,-0.363232,0.106263,468,-60
0.0937,-0.381818,0.105859,468.5,-60
0.0938,-0.408081,0.102626,469,-60
0.0939,-0.404444,0.105455,469.5,-60
0.094,-0.402828,0.105859,470,-60
0.0941,-0.428283,0.105859,470.5,-60
0.0942,-0.405253,0.108283,471,-57.9427
0.0943,-0.383434,0.105051,471.5,-57.1494
0.0944,-0.381414,0.109091,472,-56.1007
0.0945,-0.364444,0.106667,472.5,-54.6004
0.0946,-0.363232,0.106263,473,-53.2186
0.0947,-0.337374,0.103838,473.5,-54.4136
0.0948,-0.285253,0.108687,474,-56.3599
0.0949,-0.280808,0.103838,474.5,-60
0.095,-0.247273,0.105859,475,-60
0.0951,-0.23596,0.103838,475.5,-60
0.0952,-0.213333,0.105859,476,-60
0.0953,-0.221818,0.106263,476.5,-55.3801
0.0954,-0.208485,0.104242,477,-60
0.0955,-0.206869,0.106263,477.5,-60
0.0956,-0.215354,0.104242,478,-53.3383
0.0957,-0.231919,0.0993939,478.5,-47.8501
0.0958,-0.231515,0.106263,479,-50.2956
0.0959,-0.248889,0.105455,479.5,-49.6311
0.096,-0.246465,0.109091,480,-55.6364
0.0961,-0.240404,0.106667,480.5,-60
0.0962,-0.216162,0.10101,481,-59.2101
0.0963,-0.218586,0.107071,481.5,-53.1705
0.0964,-0.234747,0.104242,482,-54.2489
0.0965,-0.24,0.104242,482.5,-59.7793
0.0966,-0.220202,0.104242,483,-60
0.0967,-0.210909,0.105051,483.5,-60
0.0968,-0.210505,0.106667,484,-60
0.0969,-0.205657,0.107879,484.5,-55.458
0.097,-0.2,0.105455,485,-60
0.0971,-0.197576,0.103434,485.5,-60
0.0972,-0.204444,0.105859,486,-60
0.0973,-0.202828,0.101818,486.5,-60
0.0974,-0.198788,0.105455,487,-54.0461
0.0975,-0.20202,0.107879,487.5,-53.9446
0.0976,-0.197576,0.103434,488,-51.6323
0.0977,-0.200404,0.10303,488.5,-48.663
0.0978,-0.191111,0.105859,489,-49.9245
0.0979,-0.191919,0.104646,489.5,-52.1374
0.098,-0.20404,0.103434,490,-51.5809
0.0981,-0.214545,0.10303,490.5,-52.019
0.0982,-0.24,0.10303,491,-55.6096
0.0983,-0.256162,0.109091,491.5,-57.5716
0.0984,-0.292525,0.104242,492,-51.9307
0.0985,-0.328081,0.103434,492.5,-52.7737
0.0986,-0.348687,0.103838,493,-55.8594
0.0987,-0.361616,0.103838,493.5,-53.7791
0.0988,-0.363232,0.105455,494,-54.0971
0.0989,-0.334545,0.105455,494.5,-52.0023
0.099,-0.362424,0.109495,495,-49.134
0.0991,-0.349091,0.101818,495.5,-49.746
0.0992,-0.321616,0.101414,496,-49.1443
0.0993,-0.312727,0.105051,496.5,-46.1957
0.0994,-0.314343,0.10303,497,-47.3003
0.0995,-0.304242,0.099798,497.5,-50.2899
0.0996,-0.322828,0.10101,498,-48.421
0.0997,-0.326869,0.107071,498.5,-56.4736
0.0998,-0.338182,0.100202,499,-57.8478
0.0999,-0.339394,0.101414,499.5,-51.9863
0.1,-0.356364,0.102626,500,-52.6925
0.1001,-0.359596,0.10303,500.5,-52.4906
0.1002,-0.35798,0.104242,501,-50.5656
0.1003,-0.371717,0.102222,501.5,-47.7284
0.1004,-0.363636,0.100606,502,-47.6355
0.1005,-0.366869,0.103838,502.5,-47.4953
0.1006,-0.364444,0.10303,503,-47.399
0.1007,-0.366869,0.102222,503.5,-50.2676
0.1008,-0.365657,0.10303,504,-58.4249
0.1009,-0.364444,0.102222,504.5,-60
0.101,-0.358384,0.102626,505,-55.2717
0.1011,-0.321212,0.103434,505.5,-53.276
0.1012,-0.330505,0.102222,506,-59.5317
0.1013,-0.325657,0.104242,506.5,-59.7168
0.1014,-0.304242,0.105455,507,-53.3682
0.1015,-0.322424,0.10303,507.5,-51.5049
0.1016,-0.313535,0.104646,508,-56.3806
0.1017,-0.288081,0.10303,508.5,-55.4177
0.1018,-0.282828,0.100202,509,-52.7222
0.1019,-0.315152,0.105051,509.5,-53.6916
0.102,-0.347071,0.099798,510,-51.4518
0.1021,-0.363636,0.100606,510.5,-48.5588
0.1022,-0.374141,0.0989899,511,-48.2862
0.1023,-0.392323,0.104646,511.5,-48.8014
0.1024,-0.399192,0.104646,512,-51.5154
0.1025,-0.405657,0.106263,512.5,-49.9033
0.1026,-0.401212,0.103434,513,-46.9511
0.1027,-0.378586,0.105455,513.5,-45.9546
0.1028,-0.400404,0.103838,514,-47.5481
0.1029,-0.405657,0.105455,514.5,-49.3968
0.103,-0.406869,0.102222,515,-50.3569
0.1031,-0.427071,0.102222,515.5,-48.2986
0.1032,-0.403636,0.105859,516,-46.9088
0.1033,-0.402424,0.10303,516.5,-45.9434
0.1034,-0.403232,0.103434,517,-49.2105
0.1035,-0.383434,0.104646,517.5,-54.1795
0.1036,-0.387879,0.10303,518,-54.1486
0.1037,-0.365253,0.106667,518.5,-56.4443
0.1038,-0.368081,0.10303,519,-50.0236
0.1039,-0.380606,0.10101,519.5,-48.8674
0.104,-0.392727,0.0989899,520,-51.4071
0.1041,-0.417374,0.101414,520.5,-53.7039
0.1042,-0.408889,0.104646,521,-57.8097
0.1043,-0.406869,0.107879,521.5,-60
0.1044,-0.418586,0.0973737,522,-58.2239
0.1045,-0.408081,0.10101,522.5,-52.2368
0.1046,-0.428283,0.105859,523,-49.8057
0.1047,-0.454141,0.106667,523.5,-51.3938
0.1048,-0.467475,0.105051,524,-55.3411
0.1049,-0.454949,0.110303,524.5,-55.2003
0.105,-0.469091,0.103434,525,-57.9582
0.1051,-0.486061,0.099798,525.5,-52.5983
0.1052,-0.48,0.106263,526,-51.8183
0.1053,-0.499394,0.10303,526.5,-53.7901
0.1054,-0.517172,0.103434,527,-53.7893
0.1055,-0.513131,0.104646,527.5,-51.6718
0.1056,-0.524848,0.105051,528,-58.2925
0.1057,-0.525253,0.101414,528.5,-56.4471
0.1058,-0.525253,0.105859,529,-51.9563
0.1059,-0.533333,0.100202,529.5,-51.1183
0.106,-0.547879,0.101818,530,-49.7449
0.1061,-0.581414,0.103434,530.5,-51.1551
0.1062,-0.609293,0.100606,531,-54.3435
0.1063,-0.612121,0.103434,531.5,-59.9375
0.1064,-0.611313,0.103838,532,-60
0.1065,-0.609697,0.0989899,532.5,-56.3001
0.1066,-0.610505,0.10101,533,-54.0368
0.1067,-0.636768,0.107475,533.5,-56.1617
0.1068,-0.642828,0.103838,534,-60
0.1069,-0.647273,0.104646,534.5,-50.9327
0.107,-0.629899,0.104646,535,-50.0399
0.1071,-0.622222,0.104242,535.5,-51.3514
0.1072,-0.612121,0.104242,536,-52.6636
0.1073,-0.596364,0.105859,536.5,-60
0.1074,-0.577778,0.100202,537,-53.5643
0.1075,-0.559192,0.103434,537.5,-60
0.1076,-0.526869,0.106263,538,-55.9902
0.1077,-0.523636,0.0985859,538.5,-58.4075
0.1078,-0.494141,0.106263,539,-51.7817
0.1079,-0.474343,0.102222,539.5,-49.0625
0.108,-0.492929,0.102626,540,-51.7786
0.1081,-0.524848,0.106263,540.5,-60
0.1082,-0.52404,0.106667,541,-54.813
0.1083,-0.525253,0.103838,541.5,-53.7431
0.1084,-0.480404,0.104242,542,-53.2559
0.1085,-0.468283,0.108283,542.5,-56.414
0.1086,-0.488081,0.104646,543,-54.8599
0.1087,-0.465859,0.106263,543.5,-51.0651
0.1088,-0.441616,0.103434,544,-49.1339
0.1089,-0.42101,0.101818,544.5,-49.0799
0.109,-0.381414,0.102626,545,-50.37
0.1091,-0.362828,0.104242,545.5,-52.8549
0.1092,-0.301414,0.103434,546,-49.6215
0.1093,-0.28404,0.100606,546.5,-49.0859
0.1094,-0.282424,0.101818,547,-54.8892
0.1095,-0.275556,0.101414,547.5,-60
0.1096,-0.25899,0.10101,548,-59.2151
0.1097,-0.238788,0.0985859,548.5,-51.4483
0.1098,-0.208889,0.100202,549,-53.4535
0.1099,-0.190707,0.0981818,549.5,-59.4675
0.11,-0.160808,0.0985859,550,-57.236
0.1101,-0.128485,0.100606,550.5,-56.9148
0.1102,-0.118788,0.105859,551,-54.019
0.1103,-0.0941414,0.0989899,551.5,-54.4037
0.1104,-0.0787879,0.0965657,552,-55.7889
0.1105,-0.0444444,0.10303,552.5,-60
0.1106,-0.0383838,0.103434,553,-60
0.1107,-0.00282828,0.106263,553.5,-52.514
0.1108,0.0355556,0.104646,554,-51.9711
0.1109,0.0626263,0.103838,554.5,-55.1087
0.111,0.0553535,0.109495,555,-57.8703
0.1111,0.0759596,0.105859,555.5,-60
0.1112,0.08,0.105859,556,-59.924
0.1113,0.0812121,0.105859,556.5,-53.0189
0.1114,0.0840404,0.107475,557,-55.4838
0.1115,0.113131,0.105455,557.5,-56.8713
0.1116,0.079596,0.107071,558,-60
0.1117,0.0743434,0.109495,558.5,-60
0.1118,0.0557576,0.111111,559,-60
0.1119,0.0589899,0.105859,559.5,-60
0.112,0.0808081,0.108283,560,-59.8948
0.1121,0.0678788,0.106263,560.5,-51.6979
0.1122,0.0436364,0.106263,561,-51.3248
0.1123,0.00484848,0.109495,561.5,-51.856
0.1124,-0.0270707,0.104646,562,-57.7038
0.1125,-0.049697,0.105455,562.5,-60
0.1126,-0.0787879,0.104646,563,-60
0.1127,-0.108283,0.105859,563.5,-54.9948
0.1128,-0.136162,0.107475,564,-54.3302
0.1129,-0.190303,0.104242,564.5,-60
0.113,-0.227475,0.10101,565,-56.8089
0.1131,-0.281616,0.104646,565.5,-54.2591
0.1132,-0.329293,0.105455,566,-52.5768
0.1133,-0.382626,0.101818,566.5,-47.6074
0.1134,-0.447677,0.104646,567,-56.5379
0.1135,-0.516768,0.104646,567.5,-58.6283
0.1136,-0.558788,0.103838,568,-60
0.1137,-0.573737,0.107879,568.5,-60
0.1138,-0.578182,0.102222,569,-60
0.1139,-0.595556,0.107475,569.5,-55.814
0.114,-0.601212,0.104242,570,-52.6139
0.1141,-0.583434,0.110707,570.5,-53.4092
0.1142,-0.554343,0.106263,571,-54.5146
0.1143,-0.562828,0.099798,571.5,-56.9452
0.1144,-0.526061,0.105051,572,-59.5698
0.1145,-0.454949,0.102222,572.5,-60
0.1146,-0.41697,0.10303,573,-59.8275
0.1147,-0.387879,0.103434,573.5,-55.424
0.1148,-0.368485,0.102222,574,-60
0.1149,-0.363636,0.105859,574.5,-60
0.115,-0.329697,0.10303,575,-54.0845
0.1151,-0.294141,0.104242,575.5,-56.9615
0.1152,-0.277576,0.10303,576,-50.3933
0.1153,-0.245253,0.105051,576.5,-54.42
0.1154,-0.244444,0.104242,577,-57.3664
0.1155,-0.23596,0.105455,577.5,-56.7263
0.1156,-0.22303,0.104242,578,-60
0.1157,-0.227879,0.107071,578.5,-57.1125
0.1158,-0.222222,0.102222,579,-54.8633
0.1159,-0.208485,0.104242,579.5,-54.6564
0.116,-0.201212,0.105455,580,-53.1634
0.1161,-0.193535,0.103838,580.5,-55.6571
0.1162,-0.199192,0.102626,581,-58.6531
0.1163,-0.177778,0.102222,581.5,-60
0.1164,-0.150707,0.105455,582,-60
0.1165,-0.149899,0.103434,582.5,-60
0.1166,-0.151111,0.100606,583,-56.387
0.1167,-0.129697,0.103434,583.5,-60
0.1168,-0.154747,0.103838,584,-60
0.1169,-0.185859,0.102626,584.5,-60
0.117,-0.20202,0.10303,585,-58.5362
0.1171,-0.20202,0.101818,585.5,-53.2549
0.1172,-0.206465,0.104646,586,-50.4414
0.1173,-0.21899,0.105051,586.5,-60
0.1174,-0.234747,0.106263,587,-54.6235
0.1175,-0.242828,0.104646,587.5,-55.999
0.1176,-0.259394,0.102222,588,-60
0.1177,-0.259394,0.101818,588.5,-60
0.1178,-0.277172,0.10101,589,-60
0.1179,-0.277172,0.099798,589.5,-60
0.118,-0.28202,0.101818,590,-60
0.1181,-0.303434,0.102222,590.5,-56.1772
0.1182,-0.290101,0.101414,591,-54.3132
0.1183,-0.290101,0.0993939,591.5,-59.1621
0.1184,-0.298182,0.105051,592,-58.3705
0.1185,-0.344242,0.10303,592.5,-59.3279
0.1186,-0.357172,0.105051,593,-60
0.1187,-0.353535,0.101818,593.5,-59.1064
0.1188,-0.332525,0.107475,594,-57.9558
0.1189,-0.345051,0.105455,594.5,-56.0873
0.119,-0.36202,0.104646,595,-60
0.1191,-0.362828,0.103434,595.5,-56.2305
0.1192,-0.363636,0.103434,596,-58.7206
0.1193,-0.366465,0.101818,596.5,-58.0148
0.1194,-0.366869,0.105859,597,-60
0.1195,-0.368485,0.104646,597.5,-56.2567
0.1196,-0.365253,0.109091,598,-53.6647
0.1197,-0.366061,0.10303,598.5,-60
0.1198,-0.361212,0.106263,599,-57.6291
0.1199,-0.362828,0.104242,599.5,-56.2627
0.12,-0.363636,0.103434,600,-56.4657
0.1201,-0.363636,0.107879,600.5,-56.4355
0.1202,-0.373737,0.103434,601,-58.8924
0.1203,-0.390303,0.103838,601.5,-60
0.1204,-0.400808,0.10101,602,-60
0.1205,-0.395556,0.101414,602.5,-60
0.1206,-0.401616,0.103434,603,-57.0507
0.1207,-0.397576,0.104242,603.5,-55.846
0.1208,-0.381414,0.105051,604,-60
0.1209,-0.366061,0.105859,604.5,-60
0.121,-0.392727,0.104242,605,-52.2921
0.1211,-0.387071,0.101818,605.5,-47.2717
0.1212,-0.368889,0.104242,606,-54.3468
0.1213,-0.368485,0.101818,606.5,-56.8325
0.1214,-0.374141,0.100202,607,-56.272
0.1215,-0.368485,0.101414,607.5,-54.3197
0.1216,-0.36404,0.101414,608,-53.9836
0.1217,-0.364848,0.103434,608.5,-53.3987
0.1218,-0.362828,0.10101,609,-51.877
0.1219,-0.363636,0.106263,609.5,-51.7061
0.122,-0.364444,0.10303,610,-52.9674
0.1221,-0.363636,0.100606,610.5,-52.4837
0.1222,-0.364848,0.10303,611,-53.1621
0.1223,-0.364848,0.103838,611.5,-53.7444
0.1224,-0.389495,0.101414,612,-58.1713
0.1225,-0.369697,0.105859,612.5,-60
0.1226,-0.363636,0.105859,613,-59.3987
0.1227,-0.382222,0.105859,613.5,-57.0288
0.1228,-0.39596,0.103838,614,-60
0.1229,-0.422222,0.106263,614.5,-60
0.123,-0.564848,0.10303,615,-47.2019
0.1231,-0.684848,0.104646,615.5,-48.6379
0.1232,-0.749495,0.10101,616,-57.6903
0.1233,-0.799192,0.105455,616.5,-58.1154
0.1234,-0.804848,0.108283,617,-60
0.1235,-0.795556,0.105859,617.5,-59.6618
0.1236,-0.778182,0.101818,618,-60
0.1237,-0.761616,0.104646,618.5,-60
0.1238,-0.703838,0.106667,619,-56.3079
0.1239,-0.528081,0.105455,619.5,-54.268
0.124,-0.406869,0.103434,620,-53.1421
0.1241,-0.325657,0.104646,620.5,-53.959
0.1242,-0.271919,0.105051,621,-56.1775
0.1243,-0.259394,0.101818,621.5,-60
0.1244,-0.21899,0.100202,622,-60
0.1245,-0.208081,0.102222,622.5,-60
0.1246,-0.225051,0.104242,623,-60
0.1247,-0.255354,0.104242,623.5,-60
0.1248,-0.262626,0.10303,624,-58.6946
0.1249,-0.265051,0.101414,624.5,-60
0.125,-0.282828,0.103434,625,-50.1663
0.1251,-0.283232,0.102626,625.5,-60
0.1252,-0.298182,0.106263,626,-58.5205
0.1253,-0.32,0.10303,626.5,-60
0.1254,-0.318788,0.105859,627,-58.8476
0.1255,-0.328081,0.10303,627.5,-60
0.1256,-0.322424,0.10303,628,-60
0.1257,-0.298182,0.105455,628.5,-60
0.1258,-0.304646,0.100606,629,-60
0.1259,-0.351919,0.10101,629.5,-60
0.126,-0.345455,0.103838,630,-60
0.1261,-0.362424,0.101414,630.5,-60
0.1262,-0.363636,0.103838,631,-60
0.1263,-0.360404,0.103838,631.5,-60
0.1264,-0.370909,0.105455,632,-60
0.1265,-0.376566,0.104242,632.5,-60
0.1266,-0.36404,0.102626,633,-60
0.1267,-0.365253,0.103838,633.5,-60
0.1268,-0.374141,0.100606,634,-60
0.1269,-0.381414,0.104242,634.5,-60
0.127,-0.363636,0.105455,635,-60
0.1271,-0.324444,0.101414,635.5,-60
0.1272,-0.309091,0.10101,636,-56.3424
0.1273,-0.328485,0.103838,636.5,-60
0.1274,-0.350707,0.10303,637,-60
0.1275,-0.351515,0.102222,637.5,-60
0.1276,-0.354343,0.103434,638,-60
0.1277,-0.332121,0.102626,638.5,-60
0.1278,-0.327677,0.100606,639,-56.4894
0.1279,-0.348283,0.099798,639.5,-57.995
0.128,-0.364848,0.101414,640,-60
0.1281,-0.364848,0.104242,640.5,-60
0.1282,-0.372121,0.103434,641,-60
0.1283,-0.376566,0.106667,641.5,-59.5534
0.1284,-0.372929,0.105455,642,-57.3915
0.1285,-0.370909,0.103434,642.5,-60
0.1286,-0.363636,0.10101,643,-60
0.1287,-0.363232,0.103434,643.5,-60
0.1288,-0.362424,0.106263,644,-57.6104
0.1289,-0.357576,0.0993939,644.5,-50.8406
0.129,-0.358384,0.100202,645,-55.1705
0.1291,-0.335354,0.104242,645.5,-60
0.1292,-0.318384,0.101818,646,-60
0.1293,-0.279192,0.103838,646.5,-58.5204
0.1294,-0.271919,0.099798,647,-59.0885
0.1295,-0.258182,0.104646,647.5,-60
0.1296,-0.252525,0.10101,648,-59.1832
0.1297,-0.269899,0.105051,648.5,-55.6458
0.1298,-0.283636,0.106263,649,-60
0.1299,-0.290101,0.108687,649.5,-60
0.13,-0.307879,0.109899,650,-57.7312
0.1301,-0.336566,0.102626,650.5,-56.0451
0.1302,-0.318384,0.10303,651,-57.1267
0.1303,-0.288889,0.103838,651.5,-58.3405
0.1304,-0.319596,0.105455,652,-57.6055
0.1305,-0.319192,0.108687,652.5,-54.8468
0.1306,-0.324848,0.105051,653,-53.8708
0.1307,-0.338586,0.106667,653.5,-55.6111
0.1308,-0.362828,0.10303,654,-46.0748
0.1309,-0.38303,0.10303,654.5,-46.6858
0.131,-0.402424,0.103434,655,-58.0454
0.1311,-0.379798,0.101414,655.5,-58.199
0.1312,-0.37899,0.102222,656,-60
0.1313,-0.388283,0.104242,656.5,-60
0.1314,-0.394343,0.107475,657,-60
0.1315,-0.404848,0.10303,657.5,-60
0.1316,-0.410101,0.103838,658,-57.1828
0.1317,-0.431515,0.10303,658.5,-60
0.1318,-0.408889,0.103838,659,-57.6196
0.1319,-0.393131,0.101414,659.5,-52.6866
0.132,-0.370101,0.101818,660,-57.6738
0.1321,-0.363636,0.102626,660.5,-60
0.1322,-0.357576,0.104242,661,-60
0.1323,-0.335758,0.101414,661.5,-60
0.1324,-0.361616,0.099798,662,-60
0.1325,-0.346263,0.105455,662.5,-60
0.1326,-0.311919,0.102626,663,-60
0.1327,-0.303838,0.100606,663.5,-55.4277
0.1328,-0.282828,0.101414,664,-47.9242
0.1329,-0.283636,0.107071,664.5,-55.9862
0.133,-0.265859,0.102626,665,-57.7187
0.1331,-0.273535,0.106667,665.5,-60
0.1332,-0.27798,0.102626,666,-60
0.1333,-0.271919,0.106263,666.5,-60
0.1334,-0.257374,0.103434,667,-60
0.1335,-0.264646,0.10101,667.5,-60
0.1336,-0.28202,0.103434,668,-60
0.1337,-0.283232,0.10101,668.5,-60
0.1338,-0.294949,0.105455,669,-56.3259
0.1339,-0.325657,0.101818,669.5,-57.6498
0.134,-0.362424,0.101818,670,-60
0.1341,-0.363232,0.101414,670.5,-60
0.1342,-0.366061,0.104242,671,-60
0.1343,-0.391111,0.104242,671.5,-60
0.1344,-0.404444,0.102222,672,-60
0.1345,-0.42303,0.103838,672.5,-60
0.1346,-0.408485,0.10303,673,-57.748
0.1347,-0.421818,0.10303,673.5,-52.5008
0.1348,-0.427879,0.108283,674,-54.6032
0.1349,-0.43798,0.103838,674.5,-60
0.135,-0.425859,0.104646,675,-60
0.1351,-0.435152,0.105051,675.5,-60
0.1352,-0.440404,0.108283,676,-60
0.1353,-0.412121,0.103434,676.5,-60
0.1354,-0.404444,0.106667,677,-60
0.1355,-0.405253,0.105859,677.5,-60
0.1356,-0.397172,0.107879,678,-60
0.1357,-0.393131,0.102626,678.5,-60
0.1358,-0.423838,0.103838,679,-60
0.1359,-0.425051,0.103838,679.5,-60
0.136,-0.40404,0.101414,680,-60
0.1361,-0.402828,0.106667,680.5,-60
0.1362,-0.396364,0.107071,681,-60
0.1363,-0.373737,0.108687,681.5,-57.9231
0.1364,-0.395152,0.108687,682,-58.1221
0.1365,-0.406061,0.107879,682.5,-60
0.1366,-0.409293,0.105051,683,-56.9865
0.1367,-0.398788,0.107475,683.5,-51.5716
0.1368,-0.395152,0.110707,684,-60
0.1369,-0.367677,0.107879,684.5,-60
0.137,-0.363636,0.109495,685,-57.5259
0.1371,-0.340606,0.107071,685.5,-57.2705
0.1372,-0.292121,0.110303,686,-56.93
0.1373,-0.274747,0.106263,686.5,-56.6708
0.1374,-0.250505,0.105859,687,-56.2248
0.1375,-0.214545,0.107475,687.5,-55.6146
0.1376,-0.194343,0.107475,688,-57.4329
0.1377,-0.174545,0.107879,688.5,-57.7894
0.1378,-0.139394,0.109091,689,-58.8307
0.1379,-0.124444,0.104646,689.5,-57.0318
0.138,-0.12,0.101414,690,-56.7606
0.1381,-0.114747,0.106263,690.5,-59.157
0.1382,-0.0715152,0.107879,691,-60
0.1383,-0.0791919,0.106263,691.5,-60
0.1384,-0.0840404,0.103434,692,-59.1801
0.1385,-0.0816162,0.107475,692.5,-60
0.1386,-0.0820202,0.112323,693,-55.9684
0.1387,-0.0525253,0.111111,693.5,-52.224
0.1388,-0.0412121,0.108687,694,-60
0.1389,-0.0529293,0.109495,694.5,-60
0.139,-0.0646465,0.108687,695,-55.575
0.1391,-0.0650505,0.108283,695.5,-55.4356
0.1392,-0.0755556,0.107475,696,-59.842
0.1393,-0.0751515,0.108283,696.5,-60
0.1394,-0.0743434,0.109091,697,-60
0.1395,-0.0892929,0.103838,697.5,-60
0.1396,-0.114343,0.108687,698,-60
0.1397,-0.167273,0.108283,698.5,-60
0.1398,-0.201616,0.105859,699,-60
0.1399,-0.233535,0.103434,699.5,-58.1803
0.14,-0.269899,0.102626,700,-58.8646
0.1401,-0.291313,0.104242,700.5,-60
0.1402,-0.338182,0.103434,701,-60
0.1403,-0.394747,0.10101,701.5,-59.6811
0.1404,-0.418182,0.10303,702,-58.211
0.1405,-0.466667,0.104646,702.5,-52.3659
0.1406,-0.503434,0.104646,703,-47.0985
0.1407,-0.525253,0.104646,703.5,-53.1106
0.1408,-0.525253,0.109091,704,-60
0.1409,-0.527273,0.101414,704.5,-60
0.141,-0.524444,0.105455,705,-56.6364
0.1411,-0.506263,0.109091,705.5,-57.1534
0.1412,-0.497374,0.108283,706,-60
0.1413,-0.490909,0.109899,706.5,-58.8565
0.1414,-0.480808,0.103434,707,-55.0577
0.1415,-0.450909,0.102222,707.5,-55.1246
0.1416,-0.415354,0.108687,708,-56.8712
0.1417,-0.381818,0.107475,708.5,-55.7754
0.1418,-0.354747,0.109495,709,-59.5139
0.1419,-0.333737,0.109899,709.5,-60
0.142,-0.323636,0.105859,710,-60
0.1421,-0.323232,0.102626,710.5,-59.6719
0.1422,-0.325253,0.106667,711,-58.1131
0.1423,-0.328889,0.107071,711.5,-59.2302
0.1424,-0.337778,0.107071,712,-60
0.1425,-0.305859,0.103434,712.5,-53.1856
0.1426,-0.31596,0.104646,713,-50.0187
0.1427,-0.333737,0.107071,713.5,-54.4391
0.1428,-0.363232,0.107071,714,-55.144
0.1429,-0.366869,0.101414,714.5,-53.2732
0.143,-0.388687,0.105859,715,-55.4875
0.1431,-0.428283,0.105455,715.5,-58.5892
0.1432,-0.453737,0.107879,716,-59.3092
0.1433,-0.474343,0.103838,716.5,-60
0.1434,-0.471919,0.10303,717,-60
0.1435,-0.477172,0.106667,717.5,-60
0.1436,-0.476768,0.104646,718,-60
0.1437,-0.476364,0.109899,718.5,-60
0.1438,-0.465455,0.108283,719,-60
0.1439,-0.468283,0.105051,719.5,-60
0.144,-0.462222,0.105859,720,-60
0.1441,-0.481212,0.102626,720.5,-60
0.1442,-0.449697,0.108283,721,-60
0.1443,-0.446061,0.102222,721.5,-59.7828
0.1444,-0.412929,0.107475,722,-54.5282
0.1445,-0.405253,0.107475,722.5,-50.7103
0.1446,-0.384646,0.103838,723,-56.029
0.1447,-0.365657,0.105051,723.5,-60
0.1448,-0.364444,0.101818,724,-60
0.1449,-0.363636,0.10303,724.5,-60
0.145,-0.362424,0.104646,725,-60
0.1451,-0.324444,0.106263,725.5,-59.6691
0.1452,-0.300202,0.107475,726,-56.3744
0.1453,-0.291717,0.103434,726.5,-58.8996
0.1454,-0.313131,0.105051,727,-60
0.1455,-0.304242,0.105859,727.5,-60
0.1456,-0.282828,0.104242,728,-58.0513
0.1457,-0.282828,0.104646,728.5,-56.3957
0.1458,-0.288889,0.101414,729,-58.4048
0.1459,-0.288889,0.107879,729.5,-60
0.146,-0.303434,0.104646,730,-60
0.1461,-0.340606,0.107475,730.5,-60
0.1462,-0.327273,0.106667,731,-60
0.1463,-0.334545,0.109091,731.5,-60
0.1464,-0.342222,0.106667,732,-60
0.1465,-0.311111,0.104242,732.5,-56.2322
0.1466,-0.292929,0.10303,733,-60
0.1467,-0.309899,0.106263,733.5,-60
0.1468,-0.316768,0.107475,734,-60
0.1469,-0.334949,0.10303,734.5,-60
0.147,-0.364444,0.107071,735,-60
0.1471,-0.369697,0.10303,735.5,-59.8282
0.1472,-0.370909,0.107475,736,-60
0.1473,-0.368485,0.102222,736.5,-60
0.1474,-0.39798,0.105859,737,-60
0.1475,-0.378586,0.105859,737.5,-60
0.1476,-0.363636,0.103434,738,-60
0.1477,-0.365253,0.105859,738.5,-60
0.1478,-0.34303,0.10101,739,-60
0.1479,-0.303434,0.106263,739.5,-60
0.148,-0.293737,0.104242,740,-60
0.1481,-0.279192,0.105051,740.5,-60
0.1482,-0.276768,0.10303,741,-60
0.1483,-0.265859,0.105859,741.5,-60
0.1484,-0.26101,0.103434,742,-50.9545
0.1485,-0.24,0.101818,742.5,-55.0813
0.1486,-0.231111,0.102222,743,-60
0.1487,-0.207677,0.102626,743.5,-60
0.1488,-0.190707,0.103838,744,-60
0.1489,-0.195556,0.103838,744.5,-60
0.149,-0.19596,0.105859,745,-57.7118
0.1491,-0.166061,0.105455,745.5,-57.2206
0.1492,-0.163232,0.104646,746,-59.2686
0.1493,-0.186667,0.108687,746.5,-58.5533
0.1494,-0.201616,0.107475,747,-59.7169
0.1495,-0.194747,0.102222,747.5,-60
0.1496,-0.202424,0.105051,748,-60
0.1497,-0.20202,0.105051,748.5,-60
0.1498,-0.208889,0.108283,749,-60
0.1499,-0.238788,0.102222,749.5,-60
0.15,-0.239596,0.10303,750,-60
0.1501,-0.240404,0.100606,750.5,-60
0.1502,-0.26101,0.105859,751,-60
0.1503,-0.279192,0.105859,751.5,-54.5295
0.1504,-0.288081,0.111515,752,-52.2667
0.1505,-0.320404,0.104646,752.5,-60
0.1506,-0.334141,0.101818,753,-60
0.1507,-0.357172,0.107071,753.5,-60
0.1508,-0.363636,0.102222,754,-60
0.1509,-0.36404,0.0993939,754.5,-60
0.151,-0.364444,0.105051,755,-60
0.1511,-0.349495,0.10303,755.5,-60
0.1512,-0.325657,0.101818,756,-60
0.1513,-0.345051,0.104646,756.5,-59.958
0.1514,-0.317172,0.109495,757,-60
0.1515,-0.300202,0.105455,757.5,-60
0.1516,-0.31596,0.107475,758,-60
0.1517,-0.326465,0.107071,758.5,-57.7246
0.1518,-0.355152,0.105455,759,-60
0.1519,-0.350303,0.108687,759.5,-60
0.152,-0.348687,0.104646,760,-60
0.1521,-0.360404,0.10303,760.5,-60
0.1522,-0.363636,0.109091,761,-60
0.1523,-0.371717,0.108687,761.5,-54.3249
0.1524,-0.406869,0.106667,762,-56.242
0.1525,-0.390707,0.10303,762.5,-60
0.1526,-0.379798,0.103434,763,-60
0.1527,-0.387475,0.103838,763.5,-60
0.1528,-0.404848,0.104646,764,-60
0.1529,-0.44202,0.104242,764.5,-60
0.153,-0.475556,0.104242,765,-60
0.1531,-0.467475,0.102222,765.5,-60
0.1532,-0.521616,0.10303,766,-60
0.1533,-0.524848,0.102626,766.5,-60
0.1534,-0.525253,0.106667,767,-60
0.1535,-0.525253,0.107475,767.5,-60
0.1536,-0.525253,0.107879,768,-60
0.1537,-0.525253,0.111919,768.5,-60
0.1538,-0.525253,0.108687,769,-60
0.1539,-0.520808,0.101818,769.5,-60
0.154,-0.469091,0.103838,770,-60
0.1541,-0.454949,0.104242,770.5,-60
0.1542,-0.446465,0.101818,771,-60
0.1543,-0.44,0.106667,771.5,-60
0.1544,-0.442424,0.099798,772,-60
0.1545,-0.443636,0.103434,772.5,-60
0.1546,-0.434343,0.109495,773,-60
0.1547,-0.427879,0.105455,773.5,-60
0.1548,-0.404848,0.103838,774,-60
0.1549,-0.392727,0.105455,774.5,-60
0.155,-0.375758,0.104242,775,-60
0.1551,-0.366465,0.10303,775.5,-60
0.1552,-0.36202,0.099798,776,-60
0.1553,-0.36202,0.10303,776.5,-60
0.1554,-0.339394,0.100202,777,-60
0.1555,-0.319192,0.105859,777.5,-60
0.1556,-0.311111,0.103838,778,-60
0.1557,-0.32,0.100606,778.5,-60
0.1558,-0.289697,0.101414,779,-60
0.1559,-0.28404,0.10303,779.5,-60
0.156,-0.29697,0.102222,780,-60
0.1561,-0.342222,0.103838,780.5,-60
0.1562,-0.360404,0.104242,781,-54.4369
0.1563,-0.317172,0.103434,781.5,-55.3196
0.1564,-0.32202,0.103434,782,-59.5965
0.1565,-0.309091,0.105455,782.5,-60
0.1566,-0.296162,0.103838,783,-60
0.1567,-0.324848,0.103434,783.5,-60
0.1568,-0.288081,0.105455,784,-60
0.1569,-0.282424,0.108283,784.5,-60
0.157,-0.312727,0.106667,785,-60
0.1571,-0.491717,0.102626,785.5,-60
0.1572,-0.593131,0.108687,786,-60
0.1573,-0.644848,0.106667,786.5,-60
0.1574,-0.686465,0.105051,787,-60
0.1575,-0.686869,0.101414,787.5,-60
0.1576,-0.686869,0.10101,788,-60
0.1577,-0.686869,0.10101,788.5,-60
0.1578,-0.687273,0.0989899,789,-60
0.1579,-0.686869,0.0993939,789.5,-60
0.158,-0.691717,0.10303,790,-60
0.1581,-0.719192,0.102222,790.5,-58.2121
0.1582,-0.730909,0.104646,791,-56.2672
0.1583,-0.758788,0.104242,791.5,-60
0.1584,-0.770101,0.0957576,792,-60
0.1585,-0.774949,0.104646,792.5,-60
0.1586,-0.769697,0.101818,793,-60
0.1587,-0.768485,0.104242,793.5,-60
0.1588,-0.768081,0.105051,794,-60
0.1589,-0.767677,0.102626,794.5,-60
0.159,-0.738182,0.105051,795,-60
0.1591,-0.725253,0.102222,795.5,-60
0.1592,-0.707475,0.108283,796,-60
0.1593,-0.685657,0.103838,796.5,-60
0.1594,-0.665051,0.102626,797,-60
0.1595,-0.610101,0.103434,797.5,-58.0692
0.1596,-0.472727,0.10303,798,-57.8703
0.1597,-0.297374,0.100606,798.5,-60
0.1598,-0.194747,0.0965657,799,-60
0.1599,-0.136566,0.103838,799.5,-60
0.16,-0.118384,0.100606,800,-60
0.1601,-0.0929293,0.0981818,800.5,-60
0.1602,-0.0824242,0.10303,801,-60
0.1603,-0.0690909,0.105859,801.5,-60
0.1604,-0.0816162,0.10303,802,-60
0.1605,-0.0775758,0.107071,802.5,-60
0.1606,-0.0654545,0.107475,803,-60
0.1607,-0.0763636,0.108283,803.5,-60
0.1608,-0.089697,0.101818,804,-60
0.1609,-0.12202,0.105051,804.5,-60
0.161,-0.128081,0.102626,805,-60
0.1611,-0.158788,0.105455,805.5,-58.531
0.1612,-0.175758,0.103434,806,-57.4001
0.1613,-0.200808,0.102626,806.5,-56.1444
0.1614,-0.201616,0.106667,807,-57.6772
0.1615,-0.202424,0.105455,807.5,-60
0.1616,-0.202828,0.106667,808,-60
0.1617,-0.202424,0.104646,808.5,-60
0.1618,-0.209293,0.103434,809,-58.3287
0.1619,-0.220202,0.104646,809.5,-60
0.162,-0.202424,0.104242,810,-59.1435
0.1621,-0.204848,0.105051,810.5,-53.7522
0.1622,-0.205253,0.109899,811,-59.3762
0.1623,-0.200808,0.107071,811.5,-60
0.1624,-0.198384,0.105455,812,-60
0.1625,-0.200404,0.105859,812.5,-60
0.1626,-0.189495,0.105859,813,-60
0.1627,-0.200808,0.109495,813.5,-60
0.1628,-0.162828,0.109091,814,-60
0.1629,-0.160404,0.107879,814.5,-60
0.163,-0.172525,0.105859,815,-60
0.1631,-0.160404,0.105859,815.5,-60
0.1632,-0.132525,0.107475,816,-60
0.1633,-0.137778,0.107071,816.5,-60
0.1634,-0.166869,0.106263,817,-60
0.1635,-0.174949,0.105455,817.5,-60
0.1636,-0.160808,0.103838,818,-60
0.1637,-0.168485,0.10101,818.5,-60
0.1638,-0.15798,0.107475,819,-60
0.1639,-0.174545,0.103838,819.5,-60
0.164,-0.189899,0.107475,820,-60
0.1641,-0.18303,0.106667,820.5,-60
0.1642,-0.201616,0.105859,821,-60
0.1643,-0.216566,0.105859,821.5,-60
0.1644,-0.235152,0.102222,822,-60
0.1645,-0.242424,0.103434,822.5,-60
0.1646,-0.24404,0.102222,823,-60
0.1647,-0.234343,0.104646,823.5,-60
0.1648,-0.210505,0.100202,824,-60
0.1649,-0.210505,0.103434,824.5,-60
0.165,-0.231111,0.10303,825,-60
0.1651,-0.218586,0.0977778,825.5,-60
0.1652,-0.226667,0.102222,826,-60
0.1653,-0.263838,0.099798,826.5,-60
0.1654,-0.28,0.105859,827,-60
0.1655,-0.282828,0.100606,827.5,-60
0.1656,-0.291313,0.105051,828,-60
0.1657,-0.278384,0.099798,828.5,-60
0.1658,-0.264242,0.103838,829,-60
0.1659,-0.276364,0.102626,829.5,-60
0.166,-0.265051,0.105455,830,-60
0.1661,-0.240404,0.107475,830.5,-60
0.1662,-0.218586,0.104242,831,-60
0.1663,-0.225859,0.106667,831.5,-60
0.1664,-0.23596,0.104646,832,-60
0.1665,-0.236768,0.10101,832.5,-60
0.1666,-0.238384,0.100606,833,-60
0.1667,-0.256566,0.100202,833.5,-60
0.1668,-0.277576,0.103838,834,-60
0.1669,-0.282828,0.0985859,834.5,-60
0.167,-0.283232,0.105455,835,-60
0.1671,-0.288889,0.100202,835.5,-60
0.1672,-0.303838,0.102222,836,-60
0.1673,-0.305455,0.101414,836.5,-59.9065
0.1674,-0.311515,0.105051,837,-60
0.1675,-0.292525,0.103838,837.5,-60
0.1676,-0.259394,0.106263,838,-60
0.1677,-0.246465,0.107071,838.5,-60
0.1678,-0.24202,0.100202,839,-60
0.1679,-0.230303,0.104242,839.5,-60
0.168,-0.234747,0.105455,840,-60
0.1681,-0.246869,0.105455,840.5,-60
0.1682,-0.28202,0.105455,841,-60
0.1683,-0.298586,0.105051,841.5,-60
0.1684,-0.307071,0.103434,842,-60
0.1685,-0.317172,0.108283,842.5,-60
0.1686,-0.334949,0.107071,843,-60
0.1687,-0.342626,0.104646,843.5,-60
0.1688,-0.35798,0.106263,844,-60
0.1689,-0.363636,0.103434,844.5,-60
0.169,-0.384242,0.103838,845,-60
0.1691,-0.398788,0.110303,845.5,-60
0.1692,-0.403232,0.103838,846,-60
0.1693,-0.418182,0.107071,846.5,-60
0.1694,-0.442828,0.107071,847,-60
0.1695,-0.455354,0.105455,847.5,-60
0.1696,-0.438384,0.103434,848,-60
0.1697,-0.409293,0.100606,848.5,-60
0.1698,-0.384242,0.107071,849,-60
0.1699,-0.363636,0.102222,849.5,-59.1772
0.17,-0.363636,0.102222,850,-59.1876
0.1701,-0.372525,0.0989899,850.5,-60
0.1702,-0.374141,0.10101,851,-60
0.1703,-0.357576,0.10303,851.5,-60
0.1704,-0.362828,0.099798,852,-60
0.1705,-0.357576,0.105455,852.5,-60
0.1706,-0.362424,0.102626,853,-60
0.1707,-0.332525,0.103838,853.5,-60
0.1708,-0.325657,0.103434,854,-60
0.1709,-0.362424,0.108687,854.5,-60
0.171,-0.363636,0.106667,855,-60
0.1711,-0.363636,0.102222,855.5,-60
0.1712,-0.36202,0.104242,856,-60
0.1713,-0.361616,0.101414,856.5,-60
0.1714,-0.340202,0.10303,857,-60
0.1715,-0.32,0.101414,857.5,-60
0.1716,-0.313131,0.10101,858,-60
0.1717,-0.288485,0.102626,858.5,-60
0.1718,-0.28202,0.107475,859,-60
0.1719,-0.283232,0.106667,859.5,-60
0.172,-0.28404,0.10303,860,-60
0.1721,-0.283232,0.106263,860.5,-60
0.1722,-0.283636,0.104242,861,-60
0.1723,-0.285253,0.103434,861.5,-60
0.1724,-0.284848,0.099798,862,-60
0.1725,-0.289293,0.10303,862.5,-60
0.1726,-0.308687,0.100202,863,-60
0.1727,-0.304646,0.105051,863.5,-60
0.1728,-0.31596,0.105051,864,-60
0.1729,-0.319596,0.102222,864.5,-60
0.173,-0.308687,0.103838,865,-60
0.1731,-0.294545,0.100202,865.5,-60
0.1732,-0.290909,0.104242,866,-60
0.1733,-0.306667,0.101818,866.5,-60
0.1734,-0.311515,0.101414,867,-60
0.1735,-0.293737,0.100202,867.5,-60
0.1736,-0.31798,0.100202,868,-60
0.1737,-0.339394,0.101818,868.5,-60
0.1738,-0.339798,0.10101,869,-60
0.1739,-0.361616,0.103434,869.5,-60
0.174,-0.363636,0.107071,870,-60
0.1741,-0.363636,0.101414,870.5,-60
0.1742,-0.365253,0.103838,871,-60
0.1743,-0.397576,0.101818,871.5,-60
0.1744,-0.405657,0.104242,872,-60
0.1745,-0.403636,0.104646,872.5,-60
0.1746,-0.401212,0.099798,873,-60
0.1747,-0.422626,0.10101,873.5,-60
0.1748,-0.443636,0.105455,874,-60
0.1749,-0.446465,0.102626,874.5,-60
0.175,-0.43596,0.104242,875,-60
0.1751,-0.442424,0.103838,875.5,-60
0.1752,-0.466667,0.102626,876,-60
0.1753,-0.462222,0.10101,876.5,-60
0.1754,-0.451717,0.099798,877,-60
0.1755,-0.462222,0.100202,877.5,-60
0.1756,-0.452929,0.0993939,878,-60
0.1757,-0.460606,0.104646,878.5,-60
0.1758,-0.451313,0.100606,879,-60
0.1759,-0.441616,0.108687,879.5,-60
0.176,-0.43798,0.104242,880,-60
0.1761,-0.427879,0.105859,880.5,-60
0.1762,-0.408485,0.104242,881,-57.236
0.1763,-0.402424,0.103434,881.5,-57.6518
0.1764,-0.373737,0.10101,882,-60
0.1765,-0.364444,0.102222,882.5,-60
0.1766,-0.362828,0.0981818,883,-60
0.1767,-0.334141,0.10101,883.5,-60
0.1768,-0.301818,0.105051,884,-60
0.1769,-0.290505,0.101818,884.5,-60
0.177,-0.315556,0.102626,885,-60
0.1771,-0.318788,0.106263,885.5,-60
0.1772,-0.347475,0.103838,886,-60
0.1773,-0.362828,0.103434,886.5,-60
0.1774,-0.363636,0.102626,887,-60
0.1775,-0.363636,0.10101,887.5,-60
0.1776,-0.352727,0.103434,888,-60
0.1777,-0.355556,0.10101,888.5,-59.3894
0.1778,-0.362828,0.105859,889,-60
0.1779,-0.363636,0.101818,889.5,-60
0.178,-0.363636,0.103838,890,-60
0.1781,-0.349495,0.100606,890.5,-60
0.1782,-0.359596,0.101414,891,-60
0.1783,-0.363636,0.10303,891.5,-60
0.1784,-0.359596,0.103434,892,-60
0.1785,-0.335758,0.103434,892.5,-60
0.1786,-0.315152,0.0985859,893,-60
0.1787,-0.311919,0.0981818,893.5,-59.9843
0.1788,-0.305051,0.104646,894,-60
0.1789,-0.321616,0.102222,894.5,-60
0.179,-0.360808,0.10101,895,-60
0.1791,-0.33899,0.100202,895.5,-60
0.1792,-0.362424,0.100606,896,-60
0.1793,-0.363232,0.101414,896.5,-60
0.1794,-0.357576,0.0993939,897,-60
0.1795,-0.362828,0.103434,897.5,-60
0.1796,-0.363636,0.105859,898,-60
0.1797,-0.363232,0.105859,898.5,-58.7344
0.1798,-0.364848,0.0985859,899,-60
0.1799,-0.368889,0.103838,899.5,-60
0.18,-0.532121,0.104242,900,-60
0.1801,-0.685657,0.103434,900.5,-60
0.1802,-0.769697,0.099798,901,-60
0.1803,-0.811717,0.0981818,901.5,-60
0.1804,-0.832323,0.0993939,902,-60
0.1805,-0.833131,0.10303,902.5,-60
0.1806,-0.814949,0.101818,903,-60
0.1807,-0.796768,0.101818,903.5,-60
0.1808,-0.800808,0.106667,904,-60
0.1809,-0.768889,0.105859,904.5,-60
0.181,-0.768081,0.102222,905,-60
0.1811,-0.761212,0.101818,905.5,-60
0.1812,-0.730909,0.108687,906,-60
0.1813,-0.728889,0.105859,906.5,-60
0.1814,-0.693333,0.107879,907,-60
0.1815,-0.686869,0.103838,907.5,-60
0.1816,-0.686869,0.101818,908,-58.0265
0.1817,-0.673939,0.106667,908.5,-59.6823
0.1818,-0.671515,0.107879,909,-60
0.1819,-0.649293,0.102222,909.5,-60
0.182,-0.621818,0.103838,910,-60
0.1821,-0.604848,0.105051,910.5,-60
0.1822,-0.566869,0.103838,911,-60
0.1823,-0.365657,0.104242,911.5,-60
0.1824,-0.214545,0.102626,912,-60
0.1825,-0.120808,0.103838,912.5,-60
0.1826,-0.0973737,0.10303,913,-60
0.1827,-0.0852525,0.104242,913.5,-60
0.1828,-0.0828283,0.10101,914,-60
0.1829,-0.0759596,0.108283,914.5,-60
0.183,-0.0791919,0.099798,915,-59.5334
0.1831,-0.0759596,0.104242,915.5,-58.843
0.1832,-0.0735354,0.104646,916,-60
0.1833,-0.0731313,0.103434,916.5,-60
0.1834,-0.0622222,0.107071,917,-60
0.1835,-0.0549495,0.103838,917.5,-59.6468
0.1836,-0.08,0.101818,918,-54.724
0.1837,-0.0812121,0.101818,918.5,-59.7288
0.1838,-0.0775758,0.100606,919,-60
0.1839,-0.0707071,0.10101,919.5,-60
0.184,-0.0771717,0.102626,920,-60
0.1841,-0.0941414,0.105859,920.5,-60
0.1842,-0.0868687,0.0993939,921,-60
0.1843,-0.109899,0.104242,921.5,-60
0.1844,-0.12,0.100606,922,-60
0.1845,-0.121212,0.103838,922.5,-60
0.1846,-0.121616,0.105859,923,-60
0.1847,-0.122424,0.100606,923.5,-60
0.1848,-0.139798,0.107071,924,-60
0.1849,-0.134949,0.102222,924.5,-60
0.185,-0.148283,0.102626,925,-60
0.1851,-0.162424,0.102222,925.5,-60
0.1852,-0.155556,0.101414,926,-60
0.1853,-0.134545,0.0973737,926.5,-60
0.1854,-0.153131,0.104242,927,-60
0.1855,-0.159596,0.106263,927.5,-59.9743
0.1856,-0.16202,0.099798,928,-58.3959
0.1857,-0.167273,0.0985859,928.5,-60
0.1858,-0.173333,0.103838,929,-60
0.1859,-0.166061,0.105051,929.5,-60
0.186,-0.189899,0.106263,930,-60
0.1861,-0.20202,0.105051,930.5,-60
0.1862,-0.203636,0.104646,931,-60
0.1863,-0.205253,0.101414,931.5,-60
0.1864,-0.203232,0.104646,932,-60
0.1865,-0.202828,0.107879,932.5,-60
0.1866,-0.203636,0.104242,933,-60
0.1867,-0.210505,0.104646,933.5,-60
0.1868,-0.233131,0.104646,934,-60
0.1869,-0.233535,0.107071,934.5,-60
0.187,-0.253333,0.105051,935,-60
0.1871,-0.278788,0.106263,935.5,-60
0.1872,-0.277576,0.105051,936,-60
0.1873,-0.282828,0.105859,936.5,-60
0.1874,-0.283232,0.103434,937,-60
0.1875,-0.294545,0.101414,937.5,-60
0.1876,-0.291313,0.10101,938,-60
0.1877,-0.28404,0.101818,938.5,-60
0.1878,-0.303838,0.105455,939,-60
0.1879,-0.322828,0.108687,939.5,-60
0.188,-0.341414,0.102626,940,-60
0.1881,-0.326061,0.103434,940.5,-59.2164
0.1882,-0.34101,0.101818,941,-58.2581
0.1883,-0.340606,0.105455,941.5,-58.8809
0.1884,-0.354343,0.105051,942,-60
0.1885,-0.363232,0.101414,942.5,-60
0.1886,-0.364444,0.101414,943,-60
0.1887,-0.362828,0.106263,943.5,-60
0.1888,-0.362424,0.106667,944,-60
0.1889,-0.366061,0.105051,944.5,-60
0.189,-0.364444,0.108283,945,-60
0.1891,-0.36404,0.110303,945.5,-60
0.1892,-0.353131,0.103838,946,-60
0.1893,-0.351111,0.101414,946.5,-60
0.1894,-0.348687,0.107071,947,-60
0.1895,-0.317576,0.102222,947.5,-60
0.1896,-0.322828,0.105859,948,-60
0.1897,-0.320404,0.103838,948.5,-60
0.1898,-0.312323,0.10303,949,-60
0.1899,-0.291313,0.10303,949.5,-60
0.19,-0.291313,0.105051,950,-60
0.1901,-0.291717,0.10303,950.5,-60
0.1902,-0.294949,0.102626,951,-60
0.1903,-0.299394,0.099798,951.5,-60
0.1904,-0.311111,0.099798,952,-60
0.1905,-0.304646,0.103434,952.5,-60
0.1906,-0.322424,0.10303,953,-60
0.1907,-0.34303,0.103434,953.5,-60
0.1908,-0.359596,0.101414,954,-60
0.1909,-0.363636,0.100606,954.5,-60
0.191,-0.372525,0.102626,955,-60
0.1911,-0.404848,0.0989899,955.5,-58.2346
0.1912,-0.415758,0.105859,956,-57.1344
0.1913,-0.436364,0.100202,956.5,-60
0.1914,-0.444444,0.104646,957,-55.8569
0.1915,-0.457778,0.10303,957.5,-60
0.1916,-0.446869,0.102626,958,-60
0.1917,-0.461414,0.104646,958.5,-60
0.1918,-0.450505,0.105051,959,-60
0.1919,-0.442424,0.106667,959.5,-60
0.192,-0.410101,0.106667,960,-60
0.1921,-0.385859,0.104646,960.5,-60
0.1922,-0.368889,0.106667,961,-60
0.1923,-0.375354,0.107879,961.5,-60
0.1924,-0.367677,0.106667,962,-60
0.1925,-0.365657,0.107475,962.5,-60
0.1926,-0.358788,0.104646,963,-60
0.1927,-0.334949,0.104242,963.5,-60
0.1928,-0.355152,0.102222,964,-60
0.1929,-0.362424,0.105051,964.5,-60
0.193,-0.343838,0.105051,965,-59.079
0.1931,-0.322424,0.104242,965.5,-57.0208
0.1932,-0.323232,0.103434,966,-59.4089
0.1933,-0.362424,0.104242,966.5,-57.38
0.1934,-0.366061,0.103434,967,-59.0652
0.1935,-0.370505,0.103434,967.5,-60
0.1936,-0.364848,0.103838,968,-60
0.1937,-0.361616,0.107071,968.5,-60
0.1938,-0.363636,0.103838,969,-60
0.1939,-0.359192,0.101414,969.5,-60
0.194,-0.336566,0.10303,970,-60
0.1941,-0.362424,0.103838,970.5,-60
0.1942,-0.363636,0.0989899,971,-60
0.1943,-0.363232,0.103434,971.5,-60
0.1944,-0.357576,0.100606,972,-60
0.1945,-0.36,0.105455,972.5,-60
0.1946,-0.329293,0.104242,973,-60
0.1947,-0.353535,0.104242,973.5,-60
0.1948,-0.34101,0.101818,974,-60
0.1949,-0.328485,0.10303,974.5,-60
0.195,-0.313939,0.103838,975,-60
0.1951,-0.313939,0.101818,975.5,-60
0.1952,-0.328081,0.104646,976,-60
0.1953,-0.302222,0.106263,976.5,-57.3986
0.1954,-0.284848,0.104646,977,-60
0.1955,-0.303838,0.105051,977.5,-60
0.1956,-0.320404,0.105051,978,-60
0.1957,-0.321212,0.103434,978.5,-60
0.1958,-0.324848,0.104242,979,-60
0.1959,-0.303434,0.105051,979.5,-60
0.196,-0.286869,0.101818,980,-60
0.1961,-0.273131,0.103838,980.5,-60
0.1962,-0.237172,0.105859,981,-60
0.1963,-0.232323,0.101818,981.5,-60
0.1964,-0.206061,0.103434,982,-60
0.1965,-0.203232,0.10303,982.5,-60
0.1966,-0.206869,0.103838,983,-60
0.1967,-0.205253,0.107475,983.5,-60
0.1968,-0.209293,0.10303,984,-60
0.1969,-0.188687,0.103434,984.5,-60
0.197,-0.134545,0.104242,985,-58.1623
0.1971,-0.135354,0.103434,985.5,-58.9094
0.1972,-0.163232,0.105051,986,-60
0.1973,-0.167677,0.105051,986.5,-60
0.1974,-0.174545,0.105859,987,-60
0.1975,-0.144242,0.105455,987.5,-60
0.1976,-0.152323,0.105455,988,-60
0.1977,-0.17697,0.104646,988.5,-60
0.1978,-0.194343,0.107879,989,-60
0.1979,-0.203636,0.102626,989.5,-60
0.198,-0.204444,0.104646,990,-60
0.1981,-0.204848,0.10303,990.5,-60
0.1982,-0.202828,0.104242,991,-60
0.1983,-0.20404,0.105455,991.5,-60
0.1984,-0.221414,0.10303,992,-60
0.1985,-0.207273,0.101818,992.5,-60
0.1986,-0.205657,0.102626,993,-60
0.1987,-0.240808,0.0989899,993.5,-60
0.1988,-0.268687,0.101414,994,-60
0.1989,-0.28404,0.101818,994.5,-60
0.199,-0.299394,0.104646,995,-60
0.1991,-0.332525,0.100202,995.5,-60
0.1992,-0.324444,0.105859,996,-60
0.1993,-0.33697,0.105455,996.5,-60
0.1994,-0.359192,0.112323,997,-60
0.1995,-0.366465,0.099798,997.5,-60
0.1996,-0.390303,0.105455,998,-60
0.1997,-0.364848,0.107475,998.5,-60
0.1998,-0.352727,0.103434,999,-60
0.1999,-0.334141,0.103434,999.5,-60
0.2,-0.31798,0.107879,1,000,-60
0.2001,-0.296566,0.105859,1,000.5,-60
0.2002,-0.295354,0.104646,1,001,-60
0.2003,-0.283636,0.105859,1,001.5,-60
0.2004,-0.294545,0.106263,1,002,-60
0.2005,-0.282828,0.109495,1,002.5,-60
0.2006,-0.278788,0.104646,1,003,-60
0.2007,-0.282828,0.103838,1,003.5,-60
0.2008,-0.290505,0.105051,1,004,-60
0.2009,-0.296162,0.105051,1,004.5,-60
0.201,-0.290909,0.102626,1,005,-60
0.2011,-0.282828,0.103838,1,005.5,-56.5695
0.2012,-0.27596,0.107071,1,006,-56.2228
0.2013,-0.251313,0.106263,1,006.5,-60
0.2014,-0.242828,0.107475,1,007,-60
0.2015,-0.231515,0.106667,1,007.5,-60
0.2016,-0.210101,0.107879,1,008,-60
0.2017,-0.230303,0.105455,1,008.5,-60
0.2018,-0.231919,0.108283,1,009,-60
0.2019,-0.25697,0.105455,1,009.5,-60
0.202,-0.282424,0.103434,1,010,-60
0.2021,-0.28202,0.10303,1,010.5,-60
0.2022,-0.283232,0.10303,1,011,-60
0.2023,-0.302626,0.105859,1,011.5,-60
0.2024,-0.330101,0.105051,1,012,-60
0.2025,-0.342222,0.103434,1,012.5,-60
0.2026,-0.356768,0.108687,1,013,-60
0.2027,-0.363636,0.107475,1,013.5,-60
0.2028,-0.363636,0.102626,1,014,-60
0.2029,-0.363636,0.105859,1,014.5,-59.2958
0.203,-0.379394,0.103838,1,015,-60
0.2031,-0.366869,0.105455,1,015.5,-53.6308
0.2032,-0.364848,0.104646,1,016,-59.3433
0.2033,-0.365253,0.110303,1,016.5,-60
0.2034,-0.373737,0.107879,1,017,-60
0.2035,-0.408081,0.105455,1,017.5,-60
0.2036,-0.420606,0.106667,1,018,-60
0.2037,-0.443636,0.10303,1,018.5,-60
0.2038,-0.445253,0.105051,1,019,-60
0.2039,-0.444444,0.106263,1,019.5,-60
0.204,-0.445657,0.110303,1,020,-60
0.2041,-0.445657,0.103838,1,020.5,-60
0.2042,-0.433131,0.106263,1,021,-60
0.2043,-0.422222,0.104646,1,021.5,-60
0.2044,-0.440808,0.10303,1,022,-60
0.2045,-0.444848,0.104646,1,022.5,-60
0.2046,-0.444848,0.105051,1,023,-60
0.2047,-0.446465,0.105455,1,023.5,-60
0.2048,-0.439596,0.108283,1,024,-60
0.2049,-0.446061,0.105051,1,024.5,-60
0.205,-0.44202,0.109091,1,025,-60
0.2051,-0.438384,0.107071,1,025.5,-60
0.2052,-0.438384,0.109495,1,026,-60
0.2053,-0.432727,0.105051,1,026.5,-60
0.2054,-0.435556,0.108283,1,027,-60
0.2055,-0.42303,0.107879,1,027.5,-60
0.2056,-0.412929,0.106263,1,028,-60
0.2057,-0.40404,0.102222,1,028.5,-60
0.2058,-0.40202,0.104646,1,029,-60
0.2059,-0.410101,0.103838,1,029.5,-60
0.206,-0.405253,0.108283,1,030,-60
0.2061,-0.40202,0.109899,1,030.5,-60
0.2062,-0.39596,0.101818,1,031,-60
0.2063,-0.393535,0.105051,1,031.5,-60
0.2064,-0.370909,0.107475,1,032,-60
0.2065,-0.365253,0.108687,1,032.5,-60
0.2066,-0.364848,0.10303,1,033,-60
0.2067,-0.364848,0.107475,1,033.5,-60
0.2068,-0.374949,0.105859,1,034,-60
0.2069,-0.364848,0.107475,1,034.5,-60
0.207,-0.363636,0.107475,1,035,-60
0.2071,-0.366465,0.108687,1,035.5,-60
0.2072,-0.366061,0.108687,1,036,-60
0.2073,-0.363636,0.107879,1,036.5,-60
0.2074,-0.36404,0.109899,1,037,-60
0.2075,-0.389091,0.107475,1,037.5,-60
0.2076,-0.40404,0.105859,1,038,-60
0.2077,-0.422222,0.105051,1,038.5,-60
0.2078,-0.405253,0.109899,1,039,-60
0.2079,-0.4,0.105455,1,039.5,-60
0.208,-0.413737,0.106667,1,040,-60
0.2081,-0.440808,0.105455,1,040.5,-60
0.2082,-0.445253,0.105859,1,041,-60
0.2083,-0.455758,0.110303,1,041.5,-60
0.2084,-0.486061,0.108687,1,042,-60
0.2085,-0.473131,0.108283,1,042.5,-60
0.2086,-0.473535,0.108687,1,043,-60
0.2087,-0.489697,0.105051,1,043.5,-60
0.2088,-0.489697,0.105051,1,044,-60
0.2089,-0.494949,0.106667,1,044.5,-58.324
0.209,-0.476364,0.103434,1,045,-56.105
0.2091,-0.473535,0.105455,1,045.5,-60
0.2092,-0.470303,0.104646,1,046,-60
0.2093,-0.448485,0.105051,1,046.5,-60
0.2094,-0.435556,0.107071,1,047,-60
0.2095,-0.403636,0.105455,1,047.5,-60
0.2096,-0.372121,0.105455,1,048,-60
0.2097,-0.363636,0.107879,1,048.5,-60
0.2098,-0.363636,0.107879,1,049,-60
0.2099,-0.363636,0.103838,1,049.5,-60
0.21,-0.359192,0.105455,1,050,-60
0.2101,-0.326465,0.099798,1,050.5,-60
0.2102,-0.30303,0.107071,1,051,-60
0.2103,-0.301818,0.0993939,1,051.5,-60
0.2104,-0.287273,0.100606,1,052,-60
0.2105,-0.276768,0.107879,1,052.5,-60
0.2106,-0.241212,0.105455,1,053,-60
0.2107,-0.211717,0.107879,1,053.5,-60
0.2108,-0.211313,0.103838,1,054,-60
0.2109,-0.208485,0.102222,1,054.5,-56.4889
0.211,-0.206869,0.10303,1,055,-60
0.2111,-0.204444,0.106667,1,055.5,-60
0.2112,-0.235556,0.105859,1,056,-60
0.2113,-0.235556,0.106263,1,056.5,-60
0.2114,-0.237576,0.107879,1,057,-60
0.2115,-0.265051,0.102222,1,057.5,-60
0.2116,-0.280404,0.106667,1,058,-60
0.2117,-0.310707,0.105051,1,058.5,-60
0.2118,-0.304242,0.104646,1,059,-60
0.2119,-0.283636,0.100202,1,059.5,-60
0.212,-0.280808,0.103434,1,060,-60
0.2121,-0.268687,0.100202,1,060.5,-60
0.2122,-0.271111,0.102626,1,061,-60
0.2123,-0.245253,0.101414,1,061.5,-60
0.2124,-0.231515,0.102626,1,062,-60
0.2125,-0.202424,0.103838,1,062.5,-60
0.2126,-0.178182,0.104242,1,063,-60
0.2127,-0.133333,0.101818,1,063.5,-60
0.2128,-0.12,0.103434,1,064,-60
0.2129,-0.116768,0.101818,1,064.5,-58.567
0.213,-0.115152,0.101818,1,065,-60
0.2131,-0.113939,0.102222,1,065.5,-60
0.2132,-0.120404,0.106263,1,066,-60
0.2133,-0.127677,0.105051,1,066.5,-60
0.2134,-0.138182,0.107475,1,067,-60
0.2135,-0.166869,0.10303,1,067.5,-60
0.2136,-0.188687,0.104646,1,068,-60
0.2137,-0.205253,0.106263,1,068.5,-60
0.2138,-0.237172,0.105455,1,069,-60
0.2139,-0.23798,0.108687,1,069.5,-60
0.214,-0.207273,0.107879,1,070,-60
0.2141,-0.216566,0.107475,1,070.5,-60
0.2142,-0.254141,0.106667,1,071,-60
0.2143,-0.280808,0.103434,1,071.5,-60
0.2144,-0.278384,0.105051,1,072,-60
0.2145,-0.288081,0.106263,1,072.5,-60
0.2146,-0.300202,0.106667,1,073,-60
0.2147,-0.32202,0.106263,1,073.5,-60
0.2148,-0.319596,0.104242,1,074,-60
0.2149,-0.304646,0.105859,1,074.5,-60
0.215,-0.289293,0.104646,1,075,-60
0.2151,-0.299798,0.104242,1,075.5,-60
0.2152,-0.313939,0.105859,1,076,-60
0.2153,-0.308687,0.105051,1,076.5,-60
0.2154,-0.32404,0.106263,1,077,-60
0.2155,-0.315152,0.106263,1,077.5,-60
0.2156,-0.32,0.107879,1,078,-60
0.2157,-0.326061,0.101818,1,078.5,-60
0.2158,-0.328889,0.105859,1,079,-60
0.2159,-0.34303,0.103434,1,079.5,-60
0.216,-0.339798,0.105455,1,080,-60
0.2161,-0.340202,0.105859,1,080.5,-60
0.2162,-0.358788,0.103838,1,081,-60
0.2163,-0.360808,0.106667,1,081.5,-60
0.2164,-0.355152,0.107475,1,082,-60
0.2165,-0.342222,0.106667,1,082.5,-60
0.2166,-0.324848,0.104242,1,083,-60
0.2167,-0.325657,0.107879,1,083.5,-60
0.2168,-0.324444,0.107071,1,084,-58.0734
0.2169,-0.320808,0.103434,1,084.5,-60
0.217,-0.286465,0.106667,1,085,-60
0.2171,-0.282424,0.108687,1,085.5,-60
0.2172,-0.282828,0.107879,1,086,-60
0.2173,-0.288081,0.101818,1,086.5,-60
0.2174,-0.316768,0.104646,1,087,-60
0.2175,-0.327677,0.105859,1,087.5,-60
0.2176,-0.340606,0.105051,1,088,-60
0.2177,-0.343434,0.106667,1,088.5,-60
0.2178,-0.33899,0.109495,1,089,-60
0.2179,-0.313535,0.106667,1,089.5,-60
0.218,-0.312323,0.106667,1,090,-60
0.2181,-0.326061,0.102626,1,090.5,-60
0.2182,-0.356768,0.105051,1,091,-60
0.2183,-0.363636,0.105051,1,091.5,-60
0.2184,-0.366465,0.104242,1,092,-60
0.2185,-0.38101,0.105051,1,092.5,-60
0.2186,-0.371313,0.10303,1,093,-60
0.2187,-0.36404,0.105455,1,093.5,-55.9769
0.2188,-0.362424,0.107475,1,094,-57.4984
0.2189,-0.363636,0.104646,1,094.5,-60
0.219,-0.363636,0.109899,1,095,-60
0.2191,-0.366869,0.109899,1,095.5,-60
0.2192,-0.378586,0.105455,1,096,-60
0.2193,-0.394747,0.105455,1,096.5,-60
0.2194,-0.378586,0.105859,1,097,-60
0.2195,-0.379798,0.104646,1,097.5,-60
0.2196,-0.390707,0.10303,1,098,-60
0.2197,-0.383434,0.106667,1,098.5,-60
0.2198,-0.396768,0.107071,1,099,-60
0.2199,-0.397576,0.104242,1,099.5,-60
0.22,-0.407273,0.102626,1,100,-60
0.2201,-0.411717,0.107071,1,100.5,-60
0.2202,-0.406061,0.104646,1,101,-60
0.2203,-0.408485,0.10303,1,101.5,-60
0.2204,-0.385859,0.102626,1,102,-60
0.2205,-0.363636,0.101414,1,102.5,-60
0.2206,-0.364848,0.104646,1,103,-60
0.2207,-0.357172,0.103434,1,103.5,-57.0559
0.2208,-0.348283,0.102626,1,104,-60
0.2209,-0.333737,0.108687,1,104.5,-60
0.221,-0.322828,0.104242,1,105,-60
0.2211,-0.314747,0.105455,1,105.5,-60
0.2212,-0.287273,0.104242,1,106,-60
0.2213,-0.289293,0.107071,1,106.5,-60
0.2214,-0.305859,0.10303,1,107,-60
0.2215,-0.296162,0.105051,1,107.5,-60
0.2216,-0.299798,0.103838,1,108,-60
0.2217,-0.282828,0.106263,1,108.5,-60
0.2218,-0.305455,0.103838,1,109,-60
0.2219,-0.322828,0.104646,1,109.5,-60
0.222,-0.310707,0.100606,1,110,-60
0.2221,-0.332121,0.105051,1,110.5,-60
0.2222,-0.362828,0.103434,1,111,-60
0.2223,-0.363636,0.104242,1,111.5,-60
0.2224,-0.36404,0.101818,1,112,-60
0.2225,-0.371313,0.0985859,1,112.5,-60
0.2226,-0.391919,0.103838,1,113,-60
0.2227,-0.421818,0.105859,1,113.5,-59.9583
0.2228,-0.444444,0.105859,1,114,-60
0.2229,-0.45697,0.105051,1,114.5,-60
0.223,-0.49697,0.107475,1,115,-60
0.2231,-0.521212,0.105859,1,115.5,-60
0.2232,-0.525253,0.106667,1,116,-60
0.2233,-0.529293,0.105455,1,116.5,-60
0.2234,-0.56202,0.105051,1,117,-60
0.2235,-0.560808,0.109091,1,117.5,-60
0.2236,-0.564848,0.102222,1,118,-60
0.2237,-0.552323,0.107475,1,118.5,-60
0.2238,-0.537778,0.108283,1,119,-60
0.2239,-0.532121,0.106263,1,119.5,-60
0.224,-0.522424,0.10303,1,120,-60
0.2241,-0.483636,0.106667,1,120.5,-60
0.2242,-0.435556,0.105051,1,121,-60
0.2243,-0.39596,0.100606,1,121.5,-60
0.2244,-0.373737,0.0993939,1,122,-60
0.2245,-0.352727,0.104242,1,122.5,-60
0.2246,-0.309495,0.105859,1,123,-60
0.2247,-0.290101,0.109091,1,123.5,-60
0.2248,-0.282828,0.113131,1,124,-60
0.2249,-0.282828,0.105455,1,124.5,-60
0.225,-0.28202,0.108687,1,125,-60
0.2251,-0.24,0.106263,1,125.5,-60
0.2252,-0.201616,0.107071,1,126,-60
0.2253,-0.2,0.109091,1,126.5,-60
0.2254,-0.20202,0.103838,1,127,-60
0.2255,-0.202828,0.103838,1,127.5,-60
0.2256,-0.21899,0.107071,1,128,-60
0.2257,-0.247273,0.10303,1,128.5,-60
0.2258,-0.261414,0.105051,1,129,-60
0.2259,-0.278788,0.109899,1,129.5,-60
0.226,-0.282828,0.104242,1,130,-60
0.2261,-0.28404,0.104242,1,130.5,-60
0.2262,-0.296566,0.101818,1,131,-60
0.2263,-0.29899,0.103434,1,131.5,-60
0.2264,-0.296162,0.107879,1,132,-60
0.2265,-0.312727,0.103434,1,132.5,-60
0.2266,-0.332929,0.101414,1,133,-60
0.2267,-0.358384,0.099798,1,133.5,-60
0.2268,-0.360808,0.102626,1,134,-60
0.2269,-0.363636,0.105859,1,134.5,-60
0.227,-0.374545,0.104646,1,135,-60
0.2271,-0.377778,0.107475,1,135.5,-60
0.2272,-0.40202,0.105051,1,136,-60
0.2273,-0.430303,0.105455,1,136.5,-60
0.2274,-0.418182,0.107879,1,137,-60
0.2275,-0.410909,0.107475,1,137.5,-60
0.2276,-0.409293,0.110707,1,138,-60
0.2277,-0.391515,0.107475,1,138.5,-60
0.2278,-0.404848,0.109495,1,139,-60
0.2279,-0.390707,0.105859,1,139.5,-60
0.228,-0.390707,0.105455,1,140,-60
0.2281,-0.433131,0.104646,1,140.5,-60
0.2282,-0.403636,0.105455,1,141,-60
0.2283,-0.384646,0.105859,1,141.5,-60
0.2284,-0.399192,0.106263,1,142,-60
0.2285,-0.402828,0.108687,1,142.5,-60
0.2286,-0.40404,0.109091,1,143,-60
0.2287,-0.386263,0.107475,1,143.5,-60
0.2288,-0.370505,0.107879,1,144,-60
0.2289,-0.367677,0.107071,1,144.5,-60
0.229,-0.387475,0.105859,1,145,-60
0.2291,-0.364444,0.107475,1,145.5,-60
0.2292,-0.362828,0.106667,1,146,-60
0.2293,-0.36202,0.106667,1,146.5,-60
0.2294,-0.357576,0.105051,1,147,-60
0.2295,-0.36,0.105859,1,147.5,-60
0.2296,-0.323232,0.104242,1,148,-60
0.2297,-0.307071,0.104646,1,148.5,-60
0.2298,-0.307879,0.107071,1,149,-60
0.2299,-0.303434,0.104242,1,149.5,-60
0.23,-0.314343,0.102626,1,150,-60
0.2301,-0.306667,0.108687,1,150.5,-60
0.2302,-0.283232,0.108687,1,151,-60
0.2303,-0.289697,0.105051,1,151.5,-60
0.2304,-0.28404,0.102222,1,152,-58.9505
0.2305,-0.280808,0.10101,1,152.5,-60
0.2306,-0.25697,0.103838,1,153,-60
0.2307,-0.24202,0.106263,1,153.5,-60
0.2308,-0.233939,0.106667,1,154,-60
0.2309,-0.238788,0.105859,1,154.5,-60
0.231,-0.240404,0.104646,1,155,-60
0.2311,-0.219798,0.108687,1,155.5,-60
0.2312,-0.221818,0.103838,1,156,-60
0.2313,-0.204444,0.106263,1,156.5,-60
0.2314,-0.20202,0.105455,1,157,-60
0.2315,-0.188687,0.109495,1,157.5,-60
0.2316,-0.193131,0.108283,1,158,-60
0.2317,-0.201212,0.111515,1,158.5,-60
0.2318,-0.19798,0.113535,1,159,-60
0.2319,-0.15798,0.109495,1,159.5,-60
0.232,-0.166465,0.112323,1,160,-60
0.2321,-0.165657,0.109091,1,160.5,-60
0.2322,-0.183838,0.108283,1,161,-60
0.2323,-0.181818,0.107071,1,161.5,-60
0.2324,-0.153535,0.109091,1,162,-60
0.2325,-0.137374,0.107879,1,162.5,-60
0.2326,-0.131717,0.109091,1,163,-60
0.2327,-0.122424,0.111515,1,163.5,-60
0.2328,-0.121616,0.106667,1,164,-60
0.2329,-0.144646,0.108687,1,164.5,-60
0.233,-0.161212,0.109091,1,165,-60
0.2331,-0.177374,0.105455,1,165.5,-60
0.2332,-0.199596,0.104242,1,166,-60
0.2333,-0.212929,0.103434,1,166.5,-60
0.2334,-0.240808,0.106263,1,167,-60
0.2335,-0.240404,0.104242,1,167.5,-60
0.2336,-0.265859,0.104242,1,168,-60
0.2337,-0.282828,0.103838,1,168.5,-60
0.2338,-0.290505,0.105859,1,169,-60
0.2339,-0.311919,0.111111,1,169.5,-60
0.234,-0.316768,0.104646,1,170,-60
0.2341,-0.344646,0.106667,1,170.5,-60
0.2342,-0.389091,0.111919,1,171,-60
0.2343,-0.404848,0.106667,1,171.5,-60
0.2344,-0.422626,0.106667,1,172,-59.6322
0.2345,-0.408889,0.106263,1,172.5,-60
0.2346,-0.417778,0.105859,1,173,-60
0.2347,-0.406869,0.104646,1,173.5,-60
0.2348,-0.402828,0.105051,1,174,-60
0.2349,-0.403636,0.107475,1,174.5,-60
0.235,-0.39596,0.112727,1,175,-60
0.2351,-0.371717,0.108283,1,175.5,-60
0.2352,-0.400404,0.109899,1,176,-60
0.2353,-0.372525,0.105051,1,176.5,-60
0.2354,-0.363636,0.111111,1,177,-60
0.2355,-0.345051,0.110707,1,177.5,-60
0.2356,-0.326869,0.112323,1,178,-60
0.2357,-0.32202,0.104242,1,178.5,-60
0.2358,-0.32404,0.109091,1,179,-60
0.2359,-0.322828,0.107475,1,179.5,-60
0.236,-0.312727,0.110303,1,180,-60
0.2361,-0.348687,0.107071,1,180.5,-60
0.2362,-0.353939,0.105051,1,181,-60
0.2363,-0.36404,0.107475,1,181.5,-60
0.2364,-0.407677,0.106667,1,182,-60
0.2365,-0.441212,0.108687,1,182.5,-60
0.2366,-0.502626,0.104242,1,183,-60
0.2367,-0.55596,0.106667,1,183.5,-60
0.2368,-0.6,0.109091,1,184,-60
0.2369,-0.609697,0.103434,1,184.5,-60
0.237,-0.640404,0.111111,1,185,-60
0.2371,-0.684848,0.106667,1,185.5,-60
0.2372,-0.685657,0.106667,1,186,-60
0.2373,-0.661818,0.102626,1,186.5,-60
0.2374,-0.620606,0.105051,1,187,-60
0.2375,-0.605253,0.107071,1,187.5,-60
0.2376,-0.581818,0.105859,1,188,-60
0.2377,-0.516768,0.10303,1,188.5,-60
0.2378,-0.452929,0.102222,1,189,-60
0.2379,-0.409697,0.105455,1,189.5,-60
0.238,-0.367273,0.106667,1,190,-60
0.2381,-0.313939,0.107879,1,190.5,-60
0.2382,-0.283232,0.105051,1,191,-60
0.2383,-0.259798,0.105455,1,191.5,-60
0.2384,-0.232323,0.108687,1,192,-60
0.2385,-0.210909,0.105859,1,192.5,-60
0.2386,-0.20202,0.103434,1,193,-60
0.2387,-0.20404,0.107071,1,193.5,-60
0.2388,-0.204848,0.100606,1,194,-60
0.2389,-0.193939,0.101818,1,194.5,-60
0.239,-0.181414,0.104646,1,195,-60
0.2391,-0.202424,0.105455,1,195.5,-60
0.2392,-0.20202,0.105051,1,196,-60
0.2393,-0.207677,0.101818,1,196.5,-60
0.2394,-0.209293,0.104242,1,197,-60
0.2395,-0.231111,0.104242,1,197.5,-60
0.2396,-0.253333,0.103434,1,198,-60
0.2397,-0.285657,0.104242,1,198.5,-60
0.2398,-0.285657,0.102626,1,199,-60
0.2399,-0.325657,0.106263,1,199.5,-60
0.24,-0.334141,0.101818,1,200,-60
0.2401,-0.363636,0.107071,1,200.5,-60
0.2402,-0.365657,0.106263,1,201,-60
0.2403,-0.391111,0.107071,1,201.5,-60
0.2404,-0.403636,0.102222,1,202,-60
0.2405,-0.403232,0.10101,1,202.5,-60
0.2406,-0.429091,0.099798,1,203,-60
0.2407,-0.425455,0.105051,1,203.5,-60
0.2408,-0.442828,0.103434,1,204,-60
0.2409,-0.447273,0.111515,1,204.5,-60
0.241,-0.452121,0.105859,1,205,-60
0.2411,-0.463434,0.109899,1,205.5,-60
0.2412,-0.466263,0.105455,1,206,-60
0.2413,-0.480404,0.109495,1,206.5,-60
0.2414,-0.492525,0.105455,1,207,-60
0.2415,-0.479192,0.104242,1,207.5,-60
0.2416,-0.453737,0.107879,1,208,-60
0.2417,-0.448889,0.104242,1,208.5,-60
0.2418,-0.456566,0.102222,1,209,-60
0.2419,-0.478788,0.104242,1,209.5,-60
0.242,-0.491717,0.108687,1,210,-60
0.2421,-0.494545,0.109091,1,210.5,-60
0.2422,-0.491717,0.109091,1,211,-60
0.2423,-0.486465,0.103434,1,211.5,-60
0.2424,-0.449697,0.104646,1,212,-60
0.2425,-0.452525,0.102222,1,212.5,-60
0.2426,-0.425859,0.104242,1,213,-60
0.2427,-0.408081,0.10303,1,213.5,-60
0.2428,-0.405253,0.102626,1,214,-60
0.2429,-0.408485,0.105455,1,214.5,-60
0.243,-0.413333,0.103434,1,215,-60
0.2431,-0.411313,0.103838,1,215.5,-60
0.2432,-0.415758,0.104646,1,216,-60
0.2433,-0.404848,0.106667,1,216.5,-60
0.2434,-0.380202,0.105859,1,217,-60
0.2435,-0.372929,0.103434,1,217.5,-60
0.2436,-0.364444,0.106667,1,218,-60
0.2437,-0.379394,0.106263,1,218.5,-60
0.2438,-0.38101,0.104646,1,219,-60
0.2439,-0.372121,0.103838,1,219.5,-60
0.244,-0.36,0.102222,1,220,-60
0.2441,-0.350707,0.103434,1,220.5,-60
0.2442,-0.355556,0.106667,1,221,-60
0.2443,-0.334141,0.109899,1,221.5,-60
0.2444,-0.355152,0.111515,1,222,-60
0.2445,-0.363636,0.108283,1,222.5,-60
0.2446,-0.363636,0.107475,1,223,-60
0.2447,-0.36404,0.106667,1,223.5,-60
0.2448,-0.365253,0.105051,1,224,-60
0.2449,-0.366465,0.109091,1,224.5,-60
0.245,-0.357576,0.105859,1,225,-60
0.2451,-0.344646,0.107071,1,225.5,-60
0.2452,-0.332929,0.105051,1,226,-60
0.2453,-0.309495,0.108283,1,226.5,-60
0.2454,-0.301414,0.110303,1,227,-60
0.2455,-0.285657,0.105859,1,227.5,-60
0.2456,-0.318384,0.105051,1,228,-60
0.2457,-0.330101,0.111111,1,228.5,-60
0.2458,-0.349899,0.109899,1,229,-60
0.2459,-0.340606,0.108283,1,229.5,-60
0.246,-0.317172,0.109899,1,230,-60
0.2461,-0.322424,0.113131,1,230.5,-60
0.2462,-0.33899,0.109495,1,231,-60
0.2463,-0.324444,0.106667,1,231.5,-60
0.2464,-0.319192,0.109091,1,232,-60
0.2465,-0.320404,0.107071,1,232.5,-60
0.2466,-0.333333,0.104242,1,233,-60
0.2467,-0.323232,0.106263,1,233.5,-60
0.2468,-0.336566,0.106667,1,234,-60
0.2469,-0.347879,0.105455,1,234.5,-60
0.247,-0.35798,0.103434,1,235,-60
0.2471,-0.359192,0.106263,1,235.5,-60
0.2472,-0.363636,0.105859,1,236,-60
0.2473,-0.33697,0.104242,1,236.5,-60
0.2474,-0.324444,0.108687,1,237,-60
0.2475,-0.339798,0.110303,1,237.5,-60
0.2476,-0.337374,0.104646,1,238,-60
0.2477,-0.322828,0.105051,1,238.5,-60
0.2478,-0.315556,0.105051,1,239,-60
0.2479,-0.294545,0.106667,1,239.5,-60
0.248,-0.274343,0.102626,1,240,-60
0.2481,-0.242424,0.103838,1,240.5,-60
0.2482,-0.224646,0.0993939,1,241,-60
0.2483,-0.203636,0.105051,1,241.5,-60
0.2484,-0.201616,0.107879,1,242,-60
0.2485,-0.20202,0.108687,1,242.5,-60
0.2486,-0.212121,0.108687,1,243,-60
0.2487,-0.232323,0.107071,1,243.5,-60
0.2488,-0.235556,0.107475,1,244,-60
0.2489,-0.221818,0.104646,1,244.5,-60
0.249,-0.20202,0.105051,1,245,-60
0.2491,-0.193535,0.105455,1,245.5,-60
0.2492,-0.19596,0.106667,1,246,-60
0.2493,-0.16,0.105455,1,246.5,-60
0.2494,-0.149091,0.104646,1,247,-60
0.2495,-0.154747,0.107071,1,247.5,-60
0.2496,-0.151111,0.104242,1,248,-60
0.2497,-0.125657,0.108687,1,248.5,-60
0.2498,-0.113131,0.104242,1,249,-60
0.2499,-0.112727,0.104646,1,249.5,-60
0.25,-0.105859,0.101818,1,250,-58.0108
0.2501,-0.120808,0.101818,1,250.5,-60
0.2502,-0.120808,0.102626,1,251,-60
0.2503,-0.138182,0.102222,1,251.5,-60
0.2504,-0.191515,0.102626,1,252,-60
0.2505,-0.219394,0.106263,1,252.5,-60
0.2506,-0.237172,0.108283,1,253,-60
0.2507,-0.278788,0.105051,1,253.5,-60
0.2508,-0.288485,0.107071,1,254,-60
0.2509,-0.317576,0.106667,1,254.5,-60
0.251,-0.32,0.109495,1,255,-60
0.2511,-0.44404,0.107475,1,255.5,-60
0.2512,-0.545455,0.109899,1,256,-60
0.2513,-0.612525,0.108687,1,256.5,-60
0.2514,-0.641616,0.105859,1,257,-60
0.2515,-0.639596,0.108283,1,257.5,-60
0.2516,-0.659798,0.105859,1,258,-60
0.2517,-0.647273,0.109495,1,258.5,-60
0.2518,-0.64404,0.108283,1,259,-60
0.2519,-0.627879,0.105051,1,259.5,-60
0.252,-0.612121,0.105051,1,260,-60
0.2521,-0.604848,0.109091,1,260.5,-60
0.2522,-0.587879,0.110303,1,261,-60
0.2523,-0.564848,0.110303,1,261.5,-60
0.2524,-0.563636,0.110707,1,262,-60
0.2525,-0.533737,0.107071,1,262.5,-60
0.2526,-0.352323,0.105455,1,263,-60
0.2527,-0.232323,0.105455,1,263.5,-60
0.2528,-0.159192,0.108687,1,264,-60
0.2529,-0.139394,0.108283,1,264.5,-60
0.253,-0.135758,0.104646,1,265,-60
0.2531,-0.127273,0.107475,1,265.5,-60
0.2532,-0.12404,0.105455,1,266,-60
0.2533,-0.120404,0.107475,1,266.5,-60
0.2534,-0.120808,0.104646,1,267,-60
0.2535,-0.122424,0.107475,1,267.5,-60
0.2536,-0.140202,0.104242,1,268,-60
0.2537,-0.155152,0.108283,1,268.5,-60
0.2538,-0.152323,0.106667,1,269,-60
0.2539,-0.175758,0.106667,1,269.5,-60
0.254,-0.191515,0.111111,1,270,-60
0.2541,-0.197576,0.104242,1,270.5,-60
0.2542,-0.194343,0.107879,1,271,-60
0.2543,-0.20202,0.10303,1,271.5,-60
0.2544,-0.202424,0.109091,1,272,-60
0.2545,-0.212121,0.106263,1,272.5,-60
0.2546,-0.226263,0.105051,1,273,-60
0.2547,-0.228687,0.107475,1,273.5,-60
0.2548,-0.242828,0.105859,1,274,-60
0.2549,-0.27798,0.106667,1,274.5,-60
0.255,-0.282828,0.107071,1,275,-60
0.2551,-0.290909,0.10101,1,275.5,-60
0.2552,-0.299394,0.106263,1,276,-60
0.2553,-0.325253,0.107475,1,276.5,-60
0.2554,-0.356768,0.103434,1,277,-60
0.2555,-0.363636,0.104242,1,277.5,-60
0.2556,-0.368485,0.106667,1,278,-60
0.2557,-0.402424,0.107475,1,278.5,-60
0.2558,-0.404848,0.107071,1,279,-60
0.2559,-0.419394,0.103434,1,279.5,-60
0.256,-0.431111,0.107475,1,280,-60
0.2561,-0.402828,0.107475,1,280.5,-60
0.2562,-0.365253,0.106263,1,281,-60
0.2563,-0.372121,0.102222,1,281.5,-60
0.2564,-0.388687,0.104646,1,282,-60
0.2565,-0.373737,0.104646,1,282.5,-60
0.2566,-0.393535,0.102626,1,283,-60
0.2567,-0.39798,0.108283,1,283.5,-60
0.2568,-0.406061,0.106263,1,284,-60
0.2569,-0.435152,0.104242,1,284.5,-60
0.257,-0.446061,0.106263,1,285,-60
0.2571,-0.450909,0.106263,1,285.5,-60
0.2572,-0.479192,0.105859,1,286,-60
0.2573,-0.50101,0.109091,1,286.5,-60
0.2574,-0.478384,0.104646,1,287,-60
0.2575,-0.474747,0.111515,1,287.5,-60
0.2576,-0.453333,0.109899,1,288,-60
0.2577,-0.458586,0.111111,1,288.5,-60
0.2578,-0.461414,0.109899,1,289,-60
0.2579,-0.44404,0.109091,1,289.5,-60
0.258,-0.444444,0.102222,1,290,-60
0.2581,-0.452121,0.104242,1,290.5,-60
0.2582,-0.449293,0.107475,1,291,-60
0.2583,-0.439192,0.109091,1,291.5,-60
0.2584,-0.407677,0.104646,1,292,-60
0.2585,-0.40404,0.102626,1,292.5,-60
0.2586,-0.40404,0.101818,1,293,-60
0.2587,-0.43798,0.108283,1,293.5,-60
0.2588,-0.434747,0.104646,1,294,-60
0.2589,-0.411717,0.106263,1,294.5,-60
0.259,-0.420606,0.106263,1,295,-60
0.2591,-0.404444,0.107071,1,295.5,-60
0.2592,-0.380202,0.104646,1,296,-60
0.2593,-0.364444,0.107071,1,296.5,-60
0.2594,-0.364848,0.105455,1,297,-60
0.2595,-0.337374,0.105455,1,297.5,-60
0.2596,-0.315152,0.107475,1,298,-60
0.2597,-0.290101,0.106263,1,298.5,-60
0.2598,-0.282828,0.108687,1,299,-60
0.2599,-0.269899,0.102222,1,299.5,-60
0.26,-0.263838,0.106263,1,300,-60
0.2601,-0.233535,0.105859,1,300.5,-60
0.2602,-0.220202,0.106263,1,301,-60
0.2603,-0.203636,0.103838,1,301.5,-60
0.2604,-0.183838,0.104646,1,302,-60
0.2605,-0.170101,0.107071,1,302.5,-60
0.2606,-0.170909,0.106263,1,303,-60
0.2607,-0.181414,0.104242,1,303.5,-60
0.2608,-0.196364,0.0989899,1,304,-60
0.2609,-0.191111,0.108283,1,304.5,-60
0.261,-0.198384,0.102626,1,305,-60
0.2611,-0.204848,0.105455,1,305.5,-60
0.2612,-0.204444,0.101818,1,306,-60
0.2613,-0.209293,0.106667,1,306.5,-60
0.2614,-0.229495,0.103838,1,307,-60
0.2615,-0.234343,0.105859,1,307.5,-60
0.2616,-0.24202,0.105455,1,308,-60
0.2617,-0.259394,0.0993939,1,308.5,-60
0.2618,-0.285657,0.0993939,1,309,-60
0.2619,-0.304646,0.102222,1,309.5,-60
0.262,-0.285657,0.102626,1,310,-60
0.2621,-0.28404,0.099798,1,310.5,-60
0.2622,-0.33899,0.107879,1,311,-60
0.2623,-0.48202,0.105859,1,311.5,-60
0.2624,-0.602828,0.108283,1,312,-60
0.2625,-0.663434,0.101818,1,312.5,-60
0.2626,-0.685657,0.103838,1,313,-60
0.2627,-0.670303,0.104242,1,313.5,-60
0.2628,-0.66101,0.104646,1,314,-60
0.2629,-0.627879,0.104242,1,314.5,-60
0.263,-0.618182,0.106263,1,315,-60
0.2631,-0.625051,0.10303,1,315.5,-60
0.2632,-0.614141,0.104242,1,316,-60
0.2633,-0.61899,0.107879,1,316.5,-60
0.2634,-0.610101,0.109899,1,317,-60
0.2635,-0.608081,0.107475,1,317.5,-60
0.2636,-0.605253,0.105051,1,318,-60
0.2637,-0.606061,0.105455,1,318.5,-60
0.2638,-0.605657,0.105859,1,319,-60
0.2639,-0.642828,0.107475,1,319.5,-60
0.264,-0.656162,0.107879,1,320,-60
0.2641,-0.666263,0.105455,1,320.5,-60
0.2642,-0.656566,0.107475,1,321,-60
0.2643,-0.652525,0.110707,1,321.5,-60
0.2644,-0.653737,0.108283,1,322,-60
0.2645,-0.648485,0.105455,1,322.5,-60
0.2646,-0.635152,0.108687,1,323,-60
0.2647,-0.631919,0.107879,1,323.5,-60
0.2648,-0.487677,0.107879,1,324,-60
0.2649,-0.320808,0.110303,1,324.5,-60
0.265,-0.238788,0.105051,1,325,-60
0.2651,-0.161212,0.110707,1,325.5,-60
0.2652,-0.116364,0.105051,1,326,-60
0.2653,-0.0880808,0.107071,1,326.5,-60
0.2654,-0.0852525,0.105455,1,327,-60
0.2655,-0.0836364,0.105455,1,327.5,-60
0.2656,-0.0836364,0.107071,1,328,-60
0.2657,-0.107475,0.104242,1,328.5,-60
0.2658,-0.109495,0.102222,1,329,-60
0.2659,-0.120404,0.104646,1,329.5,-60
0.266,-0.12,0.107071,1,330,-60
0.2661,-0.122828,0.105859,1,330.5,-60
0.2662,-0.124848,0.101818,1,331,-60
0.2663,-0.126061,0.0981818,1,331.5,-60
0.2664,-0.131313,0.106263,1,332,-60
0.2665,-0.12202,0.103838,1,332.5,-60
0.2666,-0.12,0.104242,1,333,-60
0.2667,-0.107475,0.102222,1,333.5,-60
0.2668,-0.111111,0.103838,1,334,-60
0.2669,-0.112727,0.100202,1,334.5,-60
0.267,-0.117576,0.107071,1,335,-60
0.2671,-0.115556,0.107475,1,335.5,-60
0.2672,-0.121212,0.106263,1,336,-60
0.2673,-0.119192,0.103838,1,336.5,-60
0.2674,-0.121212,0.105859,1,337,-60
0.2675,-0.124444,0.106667,1,337.5,-60
0.2676,-0.154343,0.109899,1,338,-60
0.2677,-0.15596,0.109495,1,338.5,-60
0.2678,-0.176162,0.103434,1,339,-60
0.2679,-0.182222,0.112727,1,339.5,-60
0.268,-0.176162,0.109091,1,340,-60
0.2681,-0.160808,0.109495,1,340.5,-60
0.2682,-0.157576,0.104242,1,341,-60
0.2683,-0.190303,0.102222,1,341.5,-60
0.2684,-0.191919,0.103434,1,342,-60
0.2685,-0.197172,0.10303,1,342.5,-60
0.2686,-0.201616,0.104242,1,343,-60
0.2687,-0.195556,0.103434,1,343.5,-60
0.2688,-0.190707,0.106263,1,344,-60
0.2689,-0.180606,0.104242,1,344.5,-60
0.269,-0.178586,0.103434,1,345,-60
0.2691,-0.185455,0.104242,1,345.5,-60
0.2692,-0.193939,0.106263,1,346,-60
0.2693,-0.191919,0.10303,1,346.5,-60
0.2694,-0.199596,0.103838,1,347,-60
0.2695,-0.184646,0.105455,1,347.5,-60
0.2696,-0.18101,0.107071,1,348,-60
0.2697,-0.20202,0.101414,1,348.5,-60
0.2698,-0.202424,0.100606,1,349,-60
0.2699,-0.231919,0.107071,1,349.5,-60
0.27,-0.221818,0.104242,1,350,-60
0.2701,-0.24,0.107071,1,350.5,-60
0.2702,-0.242424,0.103434,1,351,-60
0.2703,-0.239596,0.107475,1,351.5,-60
0.2704,-0.273939,0.106263,1,352,-60
0.2705,-0.327677,0.106263,1,352.5,-60
0.2706,-0.345859,0.102222,1,353,-60
0.2707,-0.363636,0.101818,1,353.5,-60
0.2708,-0.377374,0.108283,1,354,-60
0.2709,-0.401616,0.10303,1,354.5,-60
0.271,-0.433535,0.102626,1,355,-60
0.2711,-0.452525,0.104242,1,355.5,-60
0.2712,-0.446061,0.102626,1,356,-60
0.2713,-0.447677,0.105455,1,356.5,-60
0.2714,-0.444848,0.102222,1,357,-60
0.2715,-0.444444,0.107071,1,357.5,-60
0.2716,-0.446061,0.105859,1,358,-60
0.2717,-0.446061,0.103434,1,358.5,-60
0.2718,-0.424242,0.107475,1,359,-60
0.2719,-0.412121,0.100606,1,359.5,-60
0.272,-0.424646,0.106667,1,360,-60
0.2721,-0.417374,0.106263,1,360.5,-60
0.2722,-0.412525,0.101414,1,361,-60
0.2723,-0.42101,0.104242,1,361.5,-60
0.2724,-0.403636,0.101414,1,362,-60
0.2725,-0.40202,0.103434,1,362.5,-60
0.2726,-0.388687,0.10101,1,363,-60
0.2727,-0.369697,0.10303,1,363.5,-60
0.2728,-0.365657,0.10101,1,364,-60
0.2729,-0.4,0.101414,1,364.5,-60
0.273,-0.404848,0.105051,1,365,-60
0.2731,-0.431515,0.0993939,1,365.5,-60
0.2732,-0.418182,0.103434,1,366,-60
0.2733,-0.406869,0.106667,1,366.5,-60
0.2734,-0.408889,0.10303,1,367,-60
0.2735,-0.432727,0.103838,1,367.5,-60
0.2736,-0.405253,0.100606,1,368,-60
0.2737,-0.402424,0.107475,1,368.5,-60
0.2738,-0.379394,0.102222,1,369,-60
0.2739,-0.383838,0.103434,1,369.5,-60
0.274,-0.395152,0.101414,1,370,-60
0.2741,-0.37899,0.102222,1,370.5,-60
0.2742,-0.363232,0.102222,1,371,-60
0.2743,-0.363232,0.103434,1,371.5,-60
0.2744,-0.336162,0.104242,1,372,-60
0.2745,-0.357576,0.105859,1,372.5,-60
0.2746,-0.356364,0.108283,1,373,-60
0.2747,-0.323636,0.105051,1,373.5,-60
0.2748,-0.321212,0.106263,1,374,-60
0.2749,-0.326465,0.103838,1,374.5,-60
0.275,-0.319596,0.107879,1,375,-60
0.2751,-0.316364,0.103434,1,375.5,-60
0.2752,-0.320808,0.106667,1,376,-60
0.2753,-0.302222,0.107071,1,376.5,-60
0.2754,-0.293333,0.10303,1,377,-60
0.2755,-0.332121,0.102626,1,377.5,-60
0.2756,-0.353131,0.105455,1,378,-60
0.2757,-0.338586,0.104646,1,378.5,-60
0.2758,-0.332121,0.107071,1,379,-60
0.2759,-0.354343,0.105051,1,379.5,-60
0.276,-0.336566,0.104242,1,380,-60
0.2761,-0.328889,0.104242,1,380.5,-60
0.2762,-0.323636,0.103838,1,381,-60
0.2763,-0.319192,0.103434,1,381.5,-60
0.2764,-0.335354,0.100606,1,382,-60
0.2765,-0.352727,0.108687,1,382.5,-60
0.2766,-0.354747,0.101818,1,383,-60
0.2767,-0.353939,0.101818,1,383.5,-60
0.2768,-0.323636,0.105455,1,384,-60
0.2769,-0.327273,0.105051,1,384.5,-60
0.277,-0.314747,0.104242,1,385,-60
0.2771,-0.307071,0.103838,1,385.5,-60
0.2772,-0.330505,0.109091,1,386,-60
0.2773,-0.337778,0.108687,1,386.5,-60
0.2774,-0.332525,0.10303,1,387,-60
0.2775,-0.327677,0.101818,1,387.5,-60
0.2776,-0.362424,0.103434,1,388,-60
0.2777,-0.363636,0.103434,1,388.5,-60
0.2778,-0.364444,0.102626,1,389,-60
0.2779,-0.370101,0.104242,1,389.5,-60
0.278,-0.385859,0.105051,1,390,-60
0.2781,-0.376566,0.10303,1,390.5,-60
0.2782,-0.375354,0.104646,1,391,-60
0.2783,-0.363636,0.105859,1,391.5,-60
0.2784,-0.364848,0.104242,1,392,-60
0.2785,-0.364444,0.107475,1,392.5,-60
0.2786,-0.363636,0.10303,1,393,-60
0.2787,-0.363232,0.105051,1,393.5,-60
0.2788,-0.353131,0.0993939,1,394,-60
0.2789,-0.329293,0.107071,1,394.5,-60
0.279,-0.329293,0.104646,1,395,-60
0.2791,-0.327677,0.103434,1,395.5,-60
0.2792,-0.329697,0.107071,1,396,-60
0.2793,-0.328485,0.106667,1,396.5,-60
0.2794,-0.347879,0.107475,1,397,-60
0.2795,-0.330909,0.103838,1,397.5,-60
0.2796,-0.31596,0.102626,1,398,-60
0.2797,-0.318384,0.101414,1,398.5,-60
0.2798,-0.312727,0.104646,1,399,-60
0.2799,-0.291717,0.10303,1,399.5,-60
0.28,-0.30101,0.103838,1,400,-60
0.2801,-0.320404,0.108687,1,400.5,-60
0.2802,-0.283636,0.100202,1,401,-60
0.2803,-0.282424,0.105051,1,401.5,-60
0.2804,-0.277172,0.101818,1,402,-60
0.2805,-0.268283,0.10303,1,402.5,-60
0.2806,-0.273939,0.104242,1,403,-60
0.2807,-0.281616,0.104646,1,403.5,-60
0.2808,-0.278384,0.102222,1,404,-60
0.2809,-0.291313,0.104242,1,404.5,-60
0.281,-0.301414,0.105455,1,405,-60
0.2811,-0.288485,0.104242,1,405.5,-60
0.2812,-0.283636,0.0981818,1,406,-60
0.2813,-0.285253,0.100606,1,406.5,-60
0.2814,-0.283232,0.105051,1,407,-60
0.2815,-0.282828,0.104646,1,407.5,-60
0.2816,-0.295758,0.103434,1,408,-60
0.2817,-0.288081,0.101818,1,408.5,-60
0.2818,-0.28202,0.105859,1,409,-60
0.2819,-0.282424,0.100202,1,409.5,-60
0.282,-0.27596,0.104242,1,410,-60
0.2821,-0.281212,0.101818,1,410.5,-60
0.2822,-0.284848,0.105455,1,411,-60
0.2823,-0.283232,0.103838,1,411.5,-60
0.2824,-0.423838,0.108687,1,412,-60
0.2825,-0.592323,0.105051,1,412.5,-60
0.2826,-0.694545,0.105051,1,413,-60
0.2827,-0.751515,0.109091,1,413.5,-60
0.2828,-0.764444,0.10303,1,414,-60
0.2829,-0.768081,0.102222,1,414.5,-60
0.283,-0.754747,0.105455,1,415,-60
0.2831,-0.731313,0.107071,1,415.5,-60
0.2832,-0.726869,0.104242,1,416,-60
0.2833,-0.728485,0.107475,1,416.5,-60
0.2834,-0.702626,0.10101,1,417,-60
0.2835,-0.686465,0.105859,1,417.5,-60
0.2836,-0.65899,0.102222,1,418,-60
0.2837,-0.649697,0.105455,1,418.5,-60
0.2838,-0.633535,0.101818,1,419,-60
0.2839,-0.647677,0.104646,1,419.5,-60
0.284,-0.631111,0.105051,1,420,-60
0.2841,-0.60404,0.102222,1,420.5,-60
0.2842,-0.589899,0.102626,1,421,-60
0.2843,-0.56404,0.108283,1,421.5,-60
0.2844,-0.556364,0.102626,1,422,-60
0.2845,-0.536566,0.10303,1,422.5,-60
0.2846,-0.509495,0.105455,1,423,-60
0.2847,-0.313535,0.105859,1,423.5,-60
0.2848,-0.164848,0.101818,1,424,-60
0.2849,-0.0743434,0.099798,1,424.5,-60
0.285,-0.0408081,0.101414,1,425,-60
0.2851,-0.0222222,0.102626,1,425.5,-60
0.2852,0.00161616,0.110303,1,426,-60
0.2853,0.0020202,0.109091,1,426.5,-60
0.2854,-0.00363636,0.110303,1,427,-60
0.2855,-0.0286869,0.105859,1,427.5,-60
0.2856,-0.04,0.100202,1,428,-60
0.2857,-0.049697,0.104242,1,428.5,-60
0.2858,-0.0739394,0.104646,1,429,-60
0.2859,-0.0783838,0.107475,1,429.5,-60
0.286,-0.0872727,0.105051,1,430,-60
0.2861,-0.113131,0.103838,1,430.5,-60
0.2862,-0.121212,0.106263,1,431,-60
0.2863,-0.132121,0.100202,1,431.5,-60
0.2864,-0.150707,0.104646,1,432,-60
0.2865,-0.18101,0.106263,1,432.5,-60
0.2866,-0.196768,0.103838,1,433,-60
0.2867,-0.200808,0.105051,1,433.5,-60
0.2868,-0.203636,0.103838,1,434,-60
0.2869,-0.232727,0.102626,1,434.5,-60
0.287,-0.24404,0.103434,1,435,-60
0.2871,-0.271515,0.107475,1,435.5,-60
0.2872,-0.282828,0.103838,1,436,-60
0.2873,-0.275556,0.104646,1,436.5,-60
0.2874,-0.283232,0.102626,1,437,-60
0.2875,-0.294141,0.105051,1,437.5,-60
0.2876,-0.326465,0.105051,1,438,-60
0.2877,-0.361616,0.103838,1,438.5,-60
0.2878,-0.364444,0.105859,1,439,-60
0.2879,-0.35798,0.103838,1,439.5,-60
0.288,-0.363232,0.102222,1,440,-60
0.2881,-0.36404,0.101414,1,440.5,-60
0.2882,-0.366061,0.101414,1,441,-60
0.2883,-0.368485,0.105455,1,441.5,-60
0.2884,-0.363636,0.105051,1,442,-60
0.2885,-0.367273,0.104646,1,442.5,-60
0.2886,-0.36404,0.102626,1,443,-60
0.2887,-0.368081,0.105455,1,443.5,-60
0.2888,-0.363636,0.109495,1,444,-60
0.2889,-0.36404,0.101818,1,444.5,-60
0.289,-0.363636,0.109091,1,445,-60
0.2891,-0.363636,0.108283,1,445.5,-60
0.2892,-0.36404,0.107475,1,446,-60
0.2893,-0.370909,0.103434,1,446.5,-60
0.2894,-0.393939,0.105051,1,447,-60
0.2895,-0.43596,0.107879,1,447.5,-60
0.2896,-0.422626,0.104646,1,448,-60
0.2897,-0.44,0.105051,1,448.5,-60
0.2898,-0.442424,0.107879,1,449,-60
0.2899,-0.444848,0.101414,1,449.5,-60
0.29,-0.441212,0.107475,1,450,-60
0.2901,-0.440808,0.100606,1,450.5,-60
0.2902,-0.438788,0.099798,1,451,-60
0.2903,-0.407677,0.105455,1,451.5,-60
0.2904,-0.414545,0.108687,1,452,-60
0.2905,-0.406465,0.104646,1,452.5,-60
0.2906,-0.412121,0.105051,1,453,-60
0.2907,-0.408889,0.103838,1,453.5,-60
0.2908,-0.409293,0.103838,1,454,-60
0.2909,-0.402828,0.107071,1,454.5,-60
0.291,-0.398788,0.109091,1,455,-59.1449
0.2911,-0.39798,0.107475,1,455.5,-60
0.2912,-0.38303,0.106263,1,456,-60
0.2913,-0.365253,0.107475,1,456.5,-60
0.2914,-0.363636,0.108687,1,457,-60
0.2915,-0.354343,0.107879,1,457.5,-60
0.2916,-0.334949,0.105051,1,458,-60
0.2917,-0.324848,0.104646,1,458.5,-60
0.2918,-0.319192,0.105859,1,459,-60
0.2919,-0.305455,0.105051,1,459.5,-60
0.292,-0.288889,0.106263,1,460,-60
0.2921,-0.284444,0.105455,1,460.5,-60
0.2922,-0.294545,0.103434,1,461,-60
0.2923,-0.28202,0.10303,1,461.5,-60
0.2924,-0.283232,0.107071,1,462,-60
0.2925,-0.29899,0.105859,1,462.5,-60
0.2926,-0.309899,0.105859,1,463,-60
0.2927,-0.329697,0.103434,1,463.5,-60
0.2928,-0.347475,0.105455,1,464,-60
0.2929,-0.327273,0.106263,1,464.5,-60
0.293,-0.310707,0.104242,1,465,-60
0.2931,-0.316364,0.107071,1,465.5,-60
0.2932,-0.324444,0.107071,1,466,-60
0.2933,-0.34303,0.100202,1,466.5,-60
0.2934,-0.338586,0.101414,1,467,-60
0.2935,-0.327677,0.101414,1,467.5,-60
0.2936,-0.336162,0.102626,1,468,-60
0.2937,-0.36202,0.104646,1,468.5,-60
0.2938,-0.363636,0.103434,1,469,-60
0.2939,-0.365657,0.10101,1,469.5,-60
0.294,-0.364848,0.103434,1,470,-60
0.2941,-0.387475,0.104242,1,470.5,-60
0.2942,-0.405253,0.106263,1,471,-60
0.2943,-0.398384,0.103838,1,471.5,-60
0.2944,-0.387071,0.106263,1,472,-60
0.2945,-0.40202,0.105455,1,472.5,-60
0.2946,-0.372929,0.107071,1,473,-60
0.2947,-0.362828,0.106667,1,473.5,-60
0.2948,-0.36202,0.104242,1,474,-60
0.2949,-0.350303,0.107879,1,474.5,-60
0.295,-0.33697,0.109495,1,475,-60
0.2951,-0.328485,0.107879,1,475.5,-60
0.2952,-0.32,0.103434,1,476,-60
0.2953,-0.284848,0.106263,1,476.5,-60
0.2954,-0.257374,0.104646,1,477,-60
0.2955,-0.234747,0.102626,1,477.5,-60
0.2956,-0.226263,0.104646,1,478,-60
0.2957,-0.21697,0.107879,1,478.5,-60
0.2958,-0.216566,0.105051,1,479,-60
0.2959,-0.231919,0.106667,1,479.5,-60
0.296,-0.234747,0.103838,1,480,-60
0.2961,-0.207677,0.104646,1,480.5,-60
0.2962,-0.208889,0.108687,1,481,-60
0.2963,-0.236768,0.104646,1,481.5,-60
0.2964,-0.245253,0.109899,1,482,-60
0.2965,-0.283636,0.107071,1,482.5,-60
0.2966,-0.327677,0.107879,1,483,-60
0.2967,-0.363636,0.106263,1,483.5,-60
0.2968,-0.372525,0.109091,1,484,-60
0.2969,-0.411313,0.106263,1,484.5,-60
0.297,-0.445253,0.107879,1,485,-60
0.2971,-0.479192,0.103434,1,485.5,-60
0.2972,-0.510303,0.108687,1,486,-60
0.2973,-0.510303,0.107879,1,486.5,-60
0.2974,-0.469495,0.107475,1,487,-60
0.2975,-0.48,0.107475,1,487.5,-60
0.2976,-0.46101,0.107879,1,488,-60
0.2977,-0.447677,0.106667,1,488.5,-60
0.2978,-0.430303,0.105859,1,489,-60
0.2979,-0.39596,0.106667,1,489.5,-60
0.298,-0.368081,0.105051,1,490,-60
0.2981,-0.341414,0.108687,1,490.5,-60
0.2982,-0.288485,0.105455,1,491,-60
0.2983,-0.253333,0.105051,1,491.5,-60
0.2984,-0.22303,0.104242,1,492,-60
0.2985,-0.20404,0.109091,1,492.5,-60
0.2986,-0.183838,0.107879,1,493,-60
0.2987,-0.136162,0.110303,1,493.5,-60
0.2988,-0.121212,0.107475,1,494,-58.3665
0.2989,-0.120808,0.108283,1,494.5,-60
0.299,-0.110707,0.107475,1,495,-60
0.2991,-0.0707071,0.104242,1,495.5,-60
0.2992,-0.0759596,0.106667,1,496,-60
0.2993,-0.0779798,0.10101,1,496.5,-60
0.2994,-0.0787879,0.106667,1,497,-60
0.2995,-0.0860606,0.107475,1,497.5,-60
0.2996,-0.10101,0.101414,1,498,-60
0.2997,-0.119192,0.107071,1,498.5,-60
0.2998,-0.121212,0.105859,1,499,-60
0.2999,-0.126465,0.106263,1,499.5,-60
0.3,-0.169697,0.104242,1,500,-60
0.3001,-0.169697,0.103838,1,500.5,-60
0.3002,-0.169293,0.105859,1,501,-60
0.3003,-0.201616,0.106263,1,501.5,-60
0.3004,-0.200404,0.103434,1,502,-60
0.3005,-0.204444,0.105455,1,502.5,-60
0.3006,-0.205253,0.108687,1,503,-60
0.3007,-0.214141,0.107475,1,503.5,-60
0.3008,-0.241616,0.105455,1,504,-60
0.3009,-0.246869,0.104242,1,504.5,-60
0.301,-0.256162,0.106667,1,505,-60
0.3011,-0.262222,0.103838,1,505.5,-60
0.3012,-0.232323,0.106667,1,506,-60
0.3013,-0.237172,0.109899,1,506.5,-60
0.3014,-0.258586,0.106263,1,507,-60
0.3015,-0.280808,0.107879,1,507.5,-60
0.3016,-0.282828,0.105455,1,508,-60
0.3017,-0.283232,0.103838,1,508.5,-60
0.3018,-0.299798,0.107071,1,509,-60
0.3019,-0.296566,0.107879,1,509.5,-60
0.302,-0.317576,0.104646,1,510,-60
0.3021,-0.326061,0.109899,1,510.5,-60
0.3022,-0.347879,0.107071,1,511,-60
0.3023,-0.363636,0.104646,1,511.5,-60
0.3024,-0.362828,0.105859,1,512,-60
0.3025,-0.363636,0.106263,1,512.5,-60
0.3026,-0.356364,0.112323,1,513,-60
0.3027,-0.364444,0.105455,1,513.5,-60
0.3028,-0.368485,0.107879,1,514,-60
0.3029,-0.369293,0.104242,1,514.5,-60
0.303,-0.387475,0.111111,1,515,-60
0.3031,-0.370505,0.104646,1,515.5,-60
0.3032,-0.366061,0.108283,1,516,-60
0.3033,-0.377778,0.104646,1,516.5,-60
0.3034,-0.404444,0.105455,1,517,-60
0.3035,-0.389899,0.104646,1,517.5,-60
0.3036,-0.389899,0.105051,1,518,-60
0.3037,-0.386667,0.104646,1,518.5,-60
0.3038,-0.40404,0.103838,1,519,-60
0.3039,-0.406061,0.106263,1,519.5,-60
0.304,-0.389495,0.101414,1,520,-60
0.3041,-0.399596,0.105859,1,520.5,-60
0.3042,-0.398788,0.111515,1,521,-60
0.3043,-0.391919,0.106263,1,521.5,-60
0.3044,-0.386667,0.104242,1,522,-60
0.3045,-0.375354,0.104646,1,522.5,-60
0.3046,-0.372121,0.107071,1,523,-60
0.3047,-0.366465,0.106667,1,523.5,-60
0.3048,-0.383434,0.106263,1,524,-60
0.3049,-0.375354,0.106667,1,524.5,-60
0.305,-0.374545,0.105859,1,525,-60
0.3051,-0.392323,0.110707,1,525.5,-60
0.3052,-0.38101,0.111515,1,526,-60
0.3053,-0.395556,0.107475,1,526.5,-60
0.3054,-0.403636,0.108283,1,527,-60
0.3055,-0.400404,0.106263,1,527.5,-60
0.3056,-0.389495,0.102222,1,528,-60
0.3057,-0.396768,0.105051,1,528.5,-60
0.3058,-0.419798,0.104242,1,529,-60
0.3059,-0.422222,0.104646,1,529.5,-60
0.306,-0.406061,0.101818,1,530,-60
0.3061,-0.40404,0.108283,1,530.5,-60
0.3062,-0.40404,0.107475,1,531,-60
0.3063,-0.408485,0.109899,1,531.5,-60
0.3064,-0.414141,0.109899,1,532,-60
0.3065,-0.410505,0.109091,1,532.5,-60
0.3066,-0.405253,0.106263,1,533,-60
0.3067,-0.403232,0.109899,1,533.5,-60
0.3068,-0.427071,0.107475,1,534,-60
0.3069,-0.408485,0.109495,1,534.5,-60
0.307,-0.413737,0.107879,1,535,-60
0.3071,-0.439192,0.108687,1,535.5,-60
0.3072,-0.442424,0.105455,1,536,-60
0.3073,-0.445253,0.10303,1,536.5,-60
0.3074,-0.433131,0.106263,1,537,-60
0.3075,-0.439596,0.107475,1,537.5,-60
0.3076,-0.457374,0.111515,1,538,-60
0.3077,-0.456162,0.106263,1,538.5,-60
0.3078,-0.452525,0.109899,1,539,-60
0.3079,-0.449697,0.108283,1,539.5,-60
0.308,-0.434747,0.107879,1,540,-60
0.3081,-0.443636,0.105051,1,540.5,-60
0.3082,-0.425859,0.104646,1,541,-60
0.3083,-0.412525,0.103838,1,541.5,-60
0.3084,-0.430303,0.105051,1,542,-60
0.3085,-0.437172,0.105859,1,542.5,-60
0.3086,-0.434747,0.105859,1,543,-60
0.3087,-0.442828,0.109899,1,543.5,-60
0.3088,-0.407677,0.105859,1,544,-60
0.3089,-0.40202,0.106263,1,544.5,-60
0.309,-0.398788,0.110303,1,545,-60
0.3091,-0.371313,0.107475,1,545.5,-60
0.3092,-0.365657,0.109899,1,546,-60
0.3093,-0.363232,0.109091,1,546.5,-60
0.3094,-0.360404,0.111111,1,547,-60
0.3095,-0.359596,0.108687,1,547.5,-60
0.3096,-0.362828,0.113131,1,548,-60
0.3097,-0.349899,0.107879,1,548.5,-60
0.3098,-0.349899,0.108283,1,549,-60
0.3099,-0.354747,0.107071,1,549.5,-60
0.31,-0.348687,0.109495,1,550,-60
0.3101,-0.351919,0.108283,1,550.5,-60
0.3102,-0.361616,0.106263,1,551,-60
0.3103,-0.360808,0.107071,1,551.5,-60
0.3104,-0.334949,0.109091,1,552,-60
0.3105,-0.333333,0.107475,1,552.5,-60
0.3106,-0.326061,0.104646,1,553,-60
0.3107,-0.304646,0.108283,1,553.5,-60
0.3108,-0.303434,0.104646,1,554,-60
0.3109,-0.321212,0.107475,1,554.5,-60
0.311,-0.309495,0.105455,1,555,-60
0.3111,-0.284848,0.105859,1,555.5,-60
0.3112,-0.277576,0.106667,1,556,-60
0.3113,-0.281212,0.109495,1,556.5,-60
0.3114,-0.27596,0.104242,1,557,-60
0.3115,-0.275152,0.103434,1,557.5,-60
0.3116,-0.27596,0.103434,1,558,-60
0.3117,-0.273131,0.108283,1,558.5,-60
0.3118,-0.250909,0.106667,1,559,-60
0.3119,-0.240808,0.107879,1,559.5,-60
0.312,-0.233939,0.105859,1,560,-60
0.3121,-0.212121,0.102626,1,560.5,-60
0.3122,-0.210909,0.104242,1,561,-60
0.3123,-0.202424,0.106667,1,561.5,-60
0.3124,-0.202424,0.109899,1,562,-60
0.3125,-0.206061,0.105455,1,562.5,-60
0.3126,-0.235556,0.105051,1,563,-60
0.3127,-0.231919,0.100606,1,563.5,-60
0.3128,-0.210505,0.109495,1,564,-60
0.3129,-0.201212,0.103838,1,564.5,-60
0.313,-0.206869,0.101414,1,565,-60
0.3131,-0.236364,0.102222,1,565.5,-60
0.3132,-0.25899,0.105455,1,566,-60
0.3133,-0.254141,0.107879,1,566.5,-60
0.3134,-0.280808,0.109899,1,567,-60
0.3135,-0.287273,0.107475,1,567.5,-60
0.3136,-0.300202,0.104646,1,568,-60
0.3137,-0.317172,0.105455,1,568.5,-60
0.3138,-0.317172,0.107475,1,569,-60
0.3139,-0.323232,0.107879,1,569.5,-60
0.314,-0.334141,0.108283,1,570,-60
0.3141,-0.340606,0.108687,1,570.5,-60
0.3142,-0.366465,0.106667,1,571,-60
0.3143,-0.364444,0.105859,1,571.5,-60
0.3144,-0.363636,0.109091,1,572,-60
0.3145,-0.361616,0.104242,1,572.5,-60
0.3146,-0.330505,0.107879,1,573,-60
0.3147,-0.323636,0.107071,1,573.5,-60
0.3148,-0.327273,0.105859,1,574,-60
0.3149,-0.334141,0.104646,1,574.5,-60
0.315,-0.32404,0.105859,1,575,-60
0.3151,-0.330505,0.101818,1,575.5,-60
0.3152,-0.345455,0.105859,1,576,-60
0.3153,-0.35596,0.104646,1,576.5,-60
0.3154,-0.368889,0.105859,1,577,-60
0.3155,-0.36404,0.105051,1,577.5,-60
0.3156,-0.362828,0.103434,1,578,-60
0.3157,-0.360808,0.103838,1,578.5,-60
0.3158,-0.358384,0.103838,1,579,-60
0.3159,-0.326869,0.105051,1,579.5,-60
0.316,-0.319596,0.109899,1,580,-60
0.3161,-0.323636,0.105455,1,580.5,-60
0.3162,-0.300606,0.109495,1,581,-60
0.3163,-0.282424,0.110303,1,581.5,-60
0.3164,-0.274747,0.106667,1,582,-60
0.3165,-0.248485,0.107879,1,582.5,-60
0.3166,-0.234343,0.105051,1,583,-60
0.3167,-0.205657,0.107879,1,583.5,-60
0.3168,-0.203636,0.107475,1,584,-60
0.3169,-0.203232,0.110303,1,584.5,-60
0.317,-0.202424,0.109091,1,585,-60
0.3171,-0.209697,0.106263,1,585.5,-60
0.3172,-0.214545,0.111111,1,586,-60
0.3173,-0.243636,0.104646,1,586.5,-60
0.3174,-0.264242,0.107475,1,587,-60
0.3175,-0.296566,0.10303,1,587.5,-60
0.3176,-0.351515,0.104646,1,588,-60
0.3177,-0.378182,0.105455,1,588.5,-60
0.3178,-0.418586,0.107475,1,589,-60
0.3179,-0.444848,0.103434,1,589.5,-60
0.318,-0.450101,0.108283,1,590,-60
0.3181,-0.460202,0.105051,1,590.5,-60
0.3182,-0.475556,0.107475,1,591,-60
0.3183,-0.464242,0.108687,1,591.5,-60
0.3184,-0.435152,0.105051,1,592,-60
0.3185,-0.401616,0.105455,1,592.5,-60
0.3186,-0.372121,0.106263,1,593,-60
0.3187,-0.363232,0.104242,1,593.5,-60
0.3188,-0.329697,0.105859,1,594,-60
0.3189,-0.31798,0.106263,1,594.5,-60
0.319,-0.289293,0.106667,1,595,-60
0.3191,-0.273131,0.110303,1,595.5,-60
0.3192,-0.248889,0.108283,1,596,-60
0.3193,-0.219798,0.109899,1,596.5,-60
0.3194,-0.202828,0.109495,1,597,-60
0.3195,-0.23596,0.109899,1,597.5,-60
0.3196,-0.250909,0.105051,1,598,-60
0.3197,-0.244444,0.109495,1,598.5,-60
0.3198,-0.244444,0.108687,1,599,-60
0.3199,-0.260202,0.107879,1,599.5,-60
0.32,-0.268283,0.10303,1,600,-60
0.3201,-0.28202,0.111111,1,600.5,-60
0.3202,-0.292121,0.106667,1,601,-60
0.3203,-0.294949,0.107475,1,601.5,-60
